date,strategy_equity,benchmark_equity,strategy_position,benchmark_position,strategy_trade,benchmark_trade,strategy_trade_price,benchmark_trade_price
2022-08-03,10000.0,9749.789340935502,0,1,,BUY,0.0,19.565101597630598
2022-08-04,9821.940689469835,9630.329101525102,1,1,BUY,,19.183441769336344,0.0
2022-08-05,9915.902862931749,9722.484310112748,1,1,,,0.0,0.0
2022-08-08,10267.389450456163,10067.21154018477,1,1,,,0.0,0.0
2022-08-09,10371.793518449327,10169.607837639604,1,1,,,0.0,0.0
2022-08-10,10253.471222306749,10053.560970268998,1,1,,,0.0,0.0
2022-08-11,10545.796661759874,10340.264766655717,1,1,,,0.0,0.0
2022-08-12,10646.71745338585,10439.244773827348,1,1,,,0.0,0.0
2022-08-15,10705.880585099718,10497.270153008256,1,1,,,0.0,0.0
2022-08-16,10615.398712541124,10408.528316460404,1,1,,,0.0,0.0
2022-08-17,10521.434555436632,10316.371162377152,1,1,,,0.0,0.0
2022-08-18,10336.224823380968,10134.723155937943,1,1,,,0.0,0.0
2022-08-19,10274.963989640733,10074.640415154252,1,1,,,0.0,0.0
2022-08-22,10296.585693742296,10095.846317253861,1,1,,,0.0,0.0
2022-08-23,10274.963989640733,10074.640415154252,1,1,,,0.0,0.0
2022-08-24,10274.963989640733,10074.640415154252,1,1,,,0.0,0.0
2022-08-25,10148.837051774522,9950.93899532393,1,1,,,0.0,0.0
2022-08-26,10238.927154923937,10039.296596489701,1,1,,,0.0,0.0
2022-08-29,10174.063034440538,9975.679862938676,1,1,,,0.0,0.0
2022-08-30,10177.666321183702,9979.21385570601,1,1,,,0.0,0.0
2022-08-31,10195.6847385421,9996.885765038285,1,1,,,0.0,0.0
2022-09-01,10379.469223405382,10177.135932884965,1,1,,,0.0,0.0
2022-09-02,10260.550842668077,10060.504444084916,1,1,,,0.0,0.0
2022-09-05,10339.83009376671,10138.259094200883,1,1,,,0.0,0.0
2022-09-06,10383.073501969835,10180.670898400102,1,1,,,0.0,0.0
2022-09-08,10303.793259049913,10102.915275536332,1,1,,,0.0,0.0
2022-09-09,10296.585693742296,10095.846317253861,1,1,,,0.0,0.0
2022-09-12,10166.855469132921,9968.610904656205,1,1,,,0.0,0.0
2022-09-13,10228.117294694444,10028.6946181877,1,1,,,0.0,0.0
2022-09-14,10138.02719154503,9940.337017021928,1,1,,,0.0,0.0
2022-09-15,10213.70216407921,10014.556701622758,1,1,,,0.0,0.0
2022-09-16,10624.515533830187,10417.469814263139,1,1,,,0.0,0.0
2022-09-19,10747.038193131944,10537.636268578324,1,1,,,0.0,0.0
2022-09-20,10894.78485145714,10682.54164501265,1,1,,,0.0,0.0
2022-09-21,10844.335861588976,10633.062828026566,1,1,,,0.0,0.0
2022-09-22,10685.77735939171,10477.553527794633,1,1,,,0.0,0.0
2022-09-23,10674.966507340929,10466.950576744828,1,1,,,0.0,0.0
2022-09-26,10444.33334388878,10240.75266643599,1,1,,,0.0,0.0
2022-09-27,10318.209381486437,10117.054164849076,1,1,,,0.0,0.0
2022-09-28,9874.962463761827,9682.331226311479,1,1,,,0.0,0.0
2022-09-29,9681.349637563015,9388.982589684281,0,1,SELL,,18.646312118579512,0.0
2022-09-30,9681.349637563015,9392.51852794722,0,1,,,0.0,0.0
2022-10-03,9681.349637563015,9671.728275261674,0,1,,,0.0,0.0
2022-10-04,9681.349637563015,9495.01307293013,0,1,,,0.0,0.0
2022-10-05,9681.349637563015,9745.948932610307,0,1,,,0.0,0.0
2022-10-06,9681.349637563015,9820.16958995894,0,1,,,0.0,0.0
2022-10-07,9681.349637563015,9954.473960839066,0,1,,,0.0,0.0
2022-10-10,9788.885100984715,9979.21385570601,1,1,BUY,,19.30978415998799,0.0
2022-10-11,9515.14910092368,9700.003135643754,1,1,,,0.0,0.0
2022-10-13,9768.095954561375,9958.008926354203,1,1,,,0.0,0.0
2022-10-14,9535.939201021336,9721.209037743363,1,1,,,0.0,0.0
2022-10-17,9723.051055574559,9912.06312938765,1,1,,,0.0,0.0
2022-10-18,9989.85670437827,10184.204891167436,1,1,,,0.0,0.0
2022-10-19,10052.227004671238,10247.822597466264,1,1,,,0.0,0.0
2022-10-20,10201.223357820652,10399.798877678666,1,1,,,0.0,0.0
2022-10-21,10111.132606172703,10307.906310997758,1,1,,,0.0,0.0
2022-10-24,9948.276504182957,10141.793086968217,1,1,,,0.0,0.0
2022-10-25,9792.350753450535,9982.748821221146,1,1,,,0.0,0.0
2022-10-26,9723.051055574559,9912.06312938765,1,1,,,0.0,0.0
2022-10-27,10118.061050081395,10314.973323784623,1,1,,,0.0,0.0
2022-10-28,10166.572555208348,10364.455059014115,1,1,,,0.0,0.0
2022-10-31,10294.778808260106,10495.225437126908,1,1,,,0.0,0.0
2022-11-01,10298.242553377293,10498.75845714644,1,1,,,0.0,0.0
2022-11-03,10260.1280056478,10459.881618462357,1,1,,,0.0,0.0
2022-11-04,10325.963004732273,10527.03331752852,1,1,,,0.0,0.0
2022-11-07,10433.379157686375,10636.597793541703,1,1,,,0.0,0.0
2022-11-08,10526.934608125828,10732.024352989945,1,1,,,0.0,0.0
2022-11-09,10835.320457124852,11046.57791896895,1,1,,,0.0,0.0
2022-11-10,10384.867652559422,10587.116058312211,1,1,,,0.0,0.0
2022-11-11,10533.864005708836,10739.092338524613,1,1,,,0.0,0.0
2022-11-14,10745.229705476902,10954.685352288041,1,1,,,0.0,0.0
2022-11-16,10416.053756380223,10618.925884209428,1,1,,,0.0,0.0
2022-11-17,10381.403907442234,10583.58303829268,1,1,,,0.0,0.0
2022-11-18,10457.633956575535,10661.337688408646,1,1,,,0.0,0.0
2022-11-21,10561.5835033895,10767.36622615889,1,1,,,0.0,0.0
2022-11-22,10495.749457979344,10700.215499840531,1,1,,,0.0,0.0
2022-11-23,10748.694404268406,10958.219345055375,1,1,,,0.0,0.0
2022-11-24,10994.709952974461,11209.15520473555,1,1,,,0.0,0.0
2022-11-25,10644.743903780125,10852.189834557328,1,1,,,0.0,0.0
2022-11-28,10592.770560884617,10799.17702480391,1,1,,,0.0,0.0
2022-11-29,10710.578902864598,10919.34153362349,1,1,,,0.0,0.0
2022-11-30,10859.575256014012,11071.317813835893,1,1,,,0.0,0.0
2022-12-01,11112.52115597739,11329.322631798539,1,1,,,0.0,0.0
2022-12-02,11289.237006807469,11509.572799645219,1,1,,,0.0,0.0
2022-12-05,11036.29110684409,11251.567981682572,1,1,,,0.0,0.0
2022-12-06,11102.126105928563,11318.719680748734,1,1,,,0.0,0.0
2022-12-07,10977.386459016941,11191.48524089888,1,1,,,0.0,0.0
2022-12-08,10911.549552583836,11124.331596337113,1,1,,,0.0,0.0
2022-12-09,10998.175605440281,11212.690170250688,1,1,,,0.0,0.0
2022-12-12,10835.320457124852,11046.57791896895,1,1,,,0.0,0.0
2022-12-13,10752.15910305991,10961.753337822709,1,1,,,0.0,0.0
2022-12-14,10925.4112087728,11138.470485649857,1,1,,,0.0,0.0
2022-12-15,11167.961105013035,11385.871379814896,1,1,,,0.0,0.0
2022-12-16,11209.542258882664,11428.284156761918,1,1,,,0.0,0.0
2022-12-19,11216.471656465672,11435.352142296586,1,1,,,0.0,0.0
2022-12-20,11323.88590207114,11544.914672814164,1,1,,,0.0,0.0
2022-12-21,11601.087554597996,11827.660358391557,1,1,,,0.0,0.0
2022-12-22,11784.734710359715,12014.98045726851,1,1,,,0.0,0.0
2022-12-23,11646.133407259129,11873.607128105912,1,1,,,0.0,0.0
2022-12-26,11528.323157930516,11753.440673790727,1,1,,,0.0,0.0
2022-12-27,11510.997756624363,11735.768764458451,1,1,,,0.0,0.0
2022-12-28,11659.994109773777,11887.745044670854,1,1,,,0.0,0.0
2022-12-29,11687.713607454441,11916.01893230513,1,1,,,0.0,0.0
2023-01-02,11576.832755708836,11802.920463524613,1,1,,,0.0,0.0
2023-01-03,11216.471656465672,11435.352142296586,1,1,,,0.0,0.0
2023-01-04,11271.911605501316,11491.900890312943,1,1,,,0.0,0.0
2023-01-05,11296.167358064793,11516.64175792769,1,1,,,0.0,0.0
2023-01-06,11625.343307161473,11852.401226006303,1,1,,,0.0,0.0
2023-01-09,11680.783256197117,11908.94997402266,1,1,,,0.0,0.0
2023-01-10,11857.499107027195,12089.20014186934,1,1,,,0.0,0.0
2023-01-11,11926.799758577488,12159.886806450639,1,1,,,0.0,0.0
2023-01-12,11888.685210847996,12121.009967766557,1,1,,,0.0,0.0
2023-01-13,11857.499107027195,12089.20014186934,1,1,,,0.0,0.0
2023-01-16,11746.619208955906,11976.102645836625,1,1,,,0.0,0.0
2023-01-17,11919.871314668797,12152.819793663773,1,1,,,0.0,0.0
2023-01-18,12016.889556551121,12251.778400383744,1,1,,,0.0,0.0
2023-01-19,12148.560508394383,12386.082771263871,1,1,,,0.0,0.0
2023-01-20,12148.560508394383,12386.082771263871,1,1,,,0.0,0.0
2023-01-23,12245.581611299656,12485.04429622725,1,1,,,0.0,0.0
2023-01-24,12377.252563142918,12619.348667107377,1,1,,,0.0,0.0
2023-01-25,12890.074714327,13142.42726131514,1,1,,,0.0,0.0
2023-01-26,12848.495467806004,13100.016429863725,1,1,,,0.0,0.0
2023-01-27,12921.259864473484,13174.236114464555,1,1,,,0.0,0.0
2023-01-30,13139.555915498875,13396.898086510453,1,1,,,0.0,0.0
2023-01-31,13097.974761629246,13354.485309563432,1,1,,,0.0,0.0
2023-02-01,12699.498160982273,12948.03917690352,1,1,,,0.0,0.0
2023-02-02,12654.453261995457,12902.093379936967,1,1,,,0.0,0.0
2023-02-03,12619.803413057469,12866.750534020219,1,1,,,0.0,0.0
2023-02-06,12682.172759676121,12930.367267571244,1,1,,,0.0,0.0
2023-02-07,12765.334113741063,13015.191848717484,1,1,,,0.0,0.0
2023-02-08,12845.029815340184,13096.481464348588,1,1,,,0.0,0.0
2023-02-09,12172.817214632176,12410.82461162642,1,1,,,0.0,0.0
2023-02-10,12463.878615999363,12707.707241020951,1,1,,,0.0,0.0
2023-02-13,12602.477058077,12849.07765194014,1,1,,,0.0,0.0
2023-02-14,12678.706153535984,12926.831329308305,1,1,,,0.0,0.0
2023-02-15,12769.504531526707,13019.445674858842,1,1,,,0.0,0.0
2023-02-16,12926.567062044285,13179.649455986771,1,1,,,0.0,0.0
2023-02-17,12985.01108517661,13239.262359581742,1,1,,,0.0,0.0
2023-02-22,12922.915443086766,13175.924804650102,1,1,,,0.0,0.0
2023-02-23,12849.863990450047,13101.412322960648,1,1,,,0.0,0.0
2023-02-24,12462.681754732273,12706.48644252852,1,1,,,0.0,0.0
2023-02-27,12532.08254208579,12777.275245629105,1,1,,,0.0,0.0
2023-02-28,12502.861961031102,12747.470252953324,1,1,,,0.0,0.0
2023-03-01,12429.807647371434,12672.954853020463,1,1,,,0.0,0.0
2023-03-02,12634.356483125828,12881.594665489945,1,1,,,0.0,0.0
2023-03-03,12451.724036836766,12695.309570275102,1,1,,,0.0,0.0
2023-03-06,12747.590049410008,12997.092903099809,1,1,,,0.0,0.0
2023-03-07,12743.93556942954,12993.36533351973,1,1,,,0.0,0.0
2023-03-08,12740.28395047202,12989.64068218306,1,1,,,0.0,0.0
2023-03-09,12638.01000943198,12885.32126232222,1,1,,,0.0,0.0
2023-03-10,12429.807647371434,12672.954853020463,1,1,,,0.0,0.0
2023-03-13,12148.553832674168,12386.075962029252,1,1,,,0.0,0.0
2023-03-14,12152.206405306004,12389.801586113725,1,1,,,0.0,0.0
2023-03-15,12006.100639009617,12240.77370449141,1,1,,,0.0,0.0
2023-03-16,12060.890182161473,12296.659038506303,1,1,,,0.0,0.0
2023-03-17,11849.037154817723,12080.568950615678,1,1,,,0.0,0.0
2023-03-20,11819.44395859877,12017.23236843184,0,1,SELL,,23.671936242865204,0.0
2023-03-21,11819.44395859877,12039.588058434281,0,1,,,0.0,0.0
2023-03-22,11819.44395859877,12073.118675194535,0,1,,,0.0,0.0
2023-03-23,11819.44395859877,12166.260250054154,0,1,,,0.0,0.0
2023-03-24,11819.44395859877,12322.740352593217,0,1,,,0.0,0.0
2023-03-27,11819.44395859877,12218.419959984574,0,1,,,0.0,0.0
2023-03-28,11819.44395859877,12430.78539653853,0,1,,,0.0,0.0
2023-03-29,11819.44395859877,12229.59585949019,0,1,,,0.0,0.0
2023-03-30,11819.44395859877,12136.45428463057,0,1,,,0.0,0.0
2023-03-31,11819.44395859877,12114.100540123734,0,1,,,0.0,0.0
2023-04-03,11819.44395859877,12002.327926598344,0,1,,,0.0,0.0
2023-04-04,11819.44395859877,12348.820693932328,0,1,,,0.0,0.0
2023-04-05,11819.44395859877,12166.260250054154,0,1,,,0.0,0.0
2023-04-06,11819.44395859877,12687.858322106156,0,1,,,0.0,0.0
2023-04-10,11983.52127838243,12896.498134575639,1,1,BUY,,24.886979437790803,0.0
2023-04-11,12107.915998459945,13030.623519860063,1,1,,,0.0,0.0
2023-04-12,12246.13024902452,13179.649455986771,1,1,,,0.0,0.0
2023-04-13,12094.094663621077,13015.721023522172,1,1,,,0.0,0.0
2023-04-14,12083.728662491927,13004.544151268754,1,1,,,0.0,0.0
2023-04-17,11980.064140320907,12892.77056499556,1,1,,,0.0,0.0
2023-04-18,11983.52127838243,12896.498134575639,1,1,,,0.0,0.0
2023-04-19,11973.15527725328,12885.32126232222,1,1,,,0.0,0.0
2023-04-20,12035.352186204085,12952.383468590531,1,1,,,0.0,0.0
2023-04-24,11962.788373948226,12874.143417321,1,1,,,0.0,0.0
2023-04-25,12031.895950318465,12948.656871758256,1,1,,,0.0,0.0
2023-04-26,12038.808422089705,12956.110065422807,1,1,,,0.0,0.0
2023-04-27,11897.136131287703,12803.355586968217,1,1,,,0.0,0.0
2023-04-28,11879.858560563216,12784.72649379805,1,1,,,0.0,0.0
2023-05-02,11848.760557175765,12751.195877037797,1,1,,,0.0,0.0
2023-05-03,11606.88178444017,12490.396354637895,1,1,,,0.0,0.0
2023-05-04,11468.664827347884,12341.367500267777,1,1,,,0.0,0.0
2023-05-05,11593.060449601302,12475.493858300004,1,1,,,0.0,0.0
2023-05-08,11575.783781052718,12456.86573787764,1,1,,,0.0,0.0
2023-05-09,11672.534027100692,12561.184184990678,1,1,,,0.0,0.0
2023-05-10,11703.632932664046,12594.715774498734,1,1,,,0.0,0.0
2023-05-11,11762.375410081038,12658.053329430375,1,1,,,0.0,0.0
2023-05-12,11828.02765274156,12728.841159783158,1,1,,,0.0,0.0
2023-05-15,11130.035808564315,11976.249530754838,1,1,,,0.0,0.0
2023-05-16,11133.30381031717,11979.976127587113,0,1,SELL,,23.533206388128477,0.0
2023-05-17,11133.30381031717,11912.912948571,0,1,,,0.0,0.0
2023-05-18,11133.30381031717,11670.741546593461,0,1,,,0.0,0.0
2023-05-19,11133.30381031717,11514.261444054398,0,1,,,0.0,0.0
2023-05-22,11133.30381031717,11525.43928905562,0,1,,,0.0,0.0
2023-05-23,11133.30381031717,11465.829303704057,0,1,,,0.0,0.0
2023-05-24,11133.30381031717,11689.370639763627,0,1,,,0.0,0.0
2023-05-25,11133.30381031717,11853.301017723832,0,1,,,0.0,0.0
2023-05-26,11133.30381031717,11886.831634484086,0,1,,,0.0,0.0
2023-05-29,11133.30381031717,11957.620437584672,0,1,,,0.0,0.0
2023-05-30,11133.30381031717,11808.592555962357,0,1,,,0.0,0.0
2023-05-31,11133.30381031717,11525.43928905562,0,1,,,0.0,0.0
2023-06-01,11133.30381031717,11372.685783348832,0,1,,,0.0,0.0
2023-06-02,11133.30381031717,11547.793033562455,0,1,,,0.0,0.0
2023-06-05,11133.30381031717,11566.423099480424,0,1,,,0.0,0.0
2023-06-06,11133.30381031717,11547.793033562455,0,1,,,0.0,0.0
2023-06-07,11133.30381031717,11547.793033562455,0,1,,,0.0,0.0
2023-06-09,11133.30381031717,11577.598998986039,0,1,,,0.0,0.0
2023-06-12,11133.30381031717,11488.183048210893,0,1,,,0.0,0.0
2023-06-13,11133.30381031717,11406.216400109086,0,1,,,0.0,0.0
2023-06-14,11133.30381031717,11376.411407433305,0,1,,,0.0,0.0
2023-06-15,11133.30381031717,11395.04050060347,0,1,,,0.0,0.0
2023-06-16,11133.30381031717,11346.606414757523,0,1,,,0.0,0.0
2023-06-19,11133.30381031717,11272.09004207686,0,1,,,0.0,0.0
2023-06-20,11133.30381031717,11264.639766655717,0,1,,,0.0,0.0
2023-06-21,11133.30381031717,11305.622604332719,0,1,,,0.0,0.0
2023-06-22,11133.30381031717,11324.252670250688,0,1,,,0.0,0.0
2023-06-23,11133.30381031717,11398.76515194014,0,1,,,0.0,0.0
2023-06-26,11133.30381031717,11067.177799187455,0,1,,,0.0,0.0
2023-06-27,11133.30381031717,11219.932277642045,0,1,,,0.0,0.0
2023-06-28,11133.30381031717,11380.137031517777,0,1,,,0.0,0.0
2023-06-29,11133.30381031717,11469.553955040727,0,1,,,0.0,0.0
2023-06-30,11076.818766190801,11465.829303704057,1,1,BUY,,22.54811767104269,0.0
2023-07-03,11342.789187028204,11741.530349694047,1,1,,,0.0,0.0
2023-07-04,11385.91970308045,11786.238811455521,1,1,,,0.0,0.0
2023-07-05,11342.789187028204,11741.530349694047,1,1,,,0.0,0.0
2023-07-06,11252.934023453985,11648.387802086625,1,1,,,0.0,0.0
2023-07-07,11274.498812272344,11670.741546593461,1,1,,,0.0,0.0
2023-07-10,11224.180971696172,11618.582809410844,1,1,,,0.0,0.0
2023-07-11,11195.426981522833,11588.77684398726,1,1,,,0.0,0.0
2023-07-12,11066.035433366094,11454.651458702836,1,1,,,0.0,0.0
2023-07-13,11037.281443192755,11424.845493279252,1,1,,,0.0,0.0
2023-07-14,10958.209612443243,11342.88079067305,1,1,,,0.0,0.0
2023-07-17,10972.586138322149,11357.783287010941,1,1,,,0.0,0.0
2023-07-18,10846.78778321961,11227.382553063188,1,1,,,0.0,0.0
2023-07-19,10864.761255814825,11246.013591728959,1,1,,,0.0,0.0
2023-07-20,11055.25116212586,11443.472640953813,1,1,,,0.0,0.0
2023-07-21,11177.455385758672,11570.147750817094,1,1,,,0.0,0.0
2023-07-24,11328.41172273377,11726.626880608354,1,1,,,0.0,0.0
2023-07-25,11227.775103165899,11622.308433495316,1,1,,,0.0,0.0
2023-07-26,11303.252802445684,11700.547512017045,1,1,,,0.0,0.0
2023-07-27,11112.75914247254,11503.08457180098,1,1,,,0.0,0.0
2023-07-28,11256.528154923712,11652.113426171098,1,1,,,0.0,0.0
2023-07-31,11202.615244462286,11596.228092156205,1,1,,,0.0,0.0
2023-08-01,11252.934023453985,11648.387802086625,1,1,,,0.0,0.0
2023-08-02,11260.123224808965,11655.840023003373,1,1,,,0.0,0.0
2023-08-03,11274.498812272344,11670.741546593461,1,1,,,0.0,0.0
2023-08-04,11342.789187028204,11741.530349694047,1,1,,,0.0,0.0
2023-08-07,11612.353739335333,12020.95701976851,1,1,,,0.0,0.0
2023-08-08,11536.876978471075,11942.718913994584,1,1,,,0.0,0.0
2023-08-09,11576.412424638067,11983.700778923783,1,1,,,0.0,0.0
2023-08-10,11608.760546281133,12017.23236843184,1,1,,,0.0,0.0
2023-08-11,11687.832377030645,12099.197071038041,1,1,,,0.0,0.0
2023-08-14,11795.660074784551,12210.969684563432,1,1,,,0.0,0.0
2023-08-15,11716.586367203985,12129.003036461625,1,1,,,0.0,0.0
2023-08-16,11712.992235734258,12125.277412377152,1,1,,,0.0,0.0
2023-08-17,11231.91163881043,11626.59630580977,1,1,,,0.0,0.0
2023-08-18,11315.09279115418,11712.820671044145,1,1,,,0.0,0.0
2023-08-21,11318.874605729376,11716.740844689164,1,1,,,0.0,0.0
2023-08-22,11345.341677262579,11744.176223717484,1,1,,,0.0,0.0
2023-08-23,11417.180201127325,11818.642986260209,1,1,,,0.0,0.0
2023-08-24,11489.019663407598,11893.110721550736,1,1,,,0.0,0.0
2023-08-25,11489.019663407598,11893.110721550736,1,1,,,0.0,0.0
2023-08-28,11647.823031022344,12057.723968468461,1,1,,,0.0,0.0
2023-08-29,11757.471254899297,12171.383712731156,1,1,,,0.0,0.0
2023-08-30,11659.165659501348,12069.481571160111,1,1,,,0.0,0.0
2023-08-31,11504.14316804627,11908.787525139604,1,1,,,0.0,0.0
2023-09-01,11749.909502579962,12163.545310936723,1,1,,,0.0,0.0
2023-09-04,11882.24392183045,12300.721233330521,1,1,,,0.0,0.0
2023-09-05,11859.558664872442,12277.20602794722,1,1,,,0.0,0.0
2023-09-06,11772.595697953497,12187.061489067826,1,1,,,0.0,0.0
2023-09-08,11780.157450272833,12194.89989086226,1,1,,,0.0,0.0
2023-09-11,12037.26547487,12461.414306603227,1,1,,,0.0,0.0
2023-09-12,12097.76230867127,12524.124439202104,1,1,,,0.0,0.0
2023-09-13,12086.418741776739,12512.36586376265,1,1,,,0.0,0.0
2023-09-14,12003.236651017462,12426.140525780473,1,1,,,0.0,0.0
2023-09-15,11980.550455643926,12402.62434764937,1,1,,,0.0,0.0
2023-09-18,12056.170794083868,12481.011283837113,1,1,,,0.0,0.0
2023-09-19,11995.674898698126,12418.302123986039,1,1,,,0.0,0.0
2023-09-20,12192.287027909551,12622.107379875932,1,1,,,0.0,0.0
2023-09-21,12025.923784806524,12449.657676659379,1,1,,,0.0,0.0
2023-09-22,12018.36109407166,12441.818302117143,1,1,,,0.0,0.0
2023-09-25,12128.009317948614,12555.478046379838,1,1,,,0.0,0.0
2023-09-26,12052.3899179242,12477.092082939896,1,1,,,0.0,0.0
2023-09-27,11916.273684098516,12335.995986901078,1,1,,,0.0,0.0
2023-09-28,12003.236651017462,12426.140525780473,1,1,,,0.0,0.0
2023-09-29,11817.96715028504,12234.09287258223,1,1,,,0.0,0.0
2023-10-02,12093.981432511602,12520.205238304887,1,1,,,0.0,0.0
2023-10-03,12124.229380204473,12551.559818230424,1,1,,,0.0,0.0
2023-10-04,12192.287027909551,12622.107379875932,1,1,,,0.0,0.0
2023-10-05,12093.981432511602,12520.205238304887,1,1,,,0.0,0.0
2023-10-06,12143.13469941834,12571.15679546431,1,1,,,0.0,0.0
2023-10-09,12071.29429872254,12496.68808742598,1,1,,,0.0,0.0
2023-10-10,11976.769579484258,12398.705146752152,1,1,,,0.0,0.0
2023-10-11,12022.141970231329,12445.73750301436,1,1,,,0.0,0.0
2023-10-13,11851.995974137579,12269.366653404984,1,1,,,0.0,0.0
2023-10-16,11999.455774857794,12422.221324883256,1,1,,,0.0,0.0
2023-10-17,11969.207827164922,12390.866744957719,1,1,,,0.0,0.0
2023-10-18,12075.075174882208,12500.607288323197,1,1,,,0.0,0.0
2023-10-19,12063.732546403204,12488.849685631547,1,1,,,0.0,0.0
2023-10-20,11904.931055619512,12324.238384209428,1,1,,,0.0,0.0
2023-10-23,11874.683107926641,12292.88380428389,1,1,,,0.0,0.0
2023-10-24,11889.806612565313,12308.560607872758,1,1,,,0.0,0.0
2023-10-25,11840.653345658575,12257.609050713334,1,1,,,0.0,0.0
2023-10-26,11863.338602616583,12281.124256096635,1,1,,,0.0,0.0
2023-10-27,11719.66155488709,12132.190731011186,1,1,,,0.0,0.0
2023-10-30,11568.421816422735,11975.4178313835,1,1,,,0.0,0.0
2023-10-31,11647.823031022344,12057.723968468461,1,1,,,0.0,0.0
2023-11-01,11817.96715028504,12234.09287258223,1,1,,,0.0,0.0
2023-11-03,11908.71193177918,12328.157585106645,1,1,,,0.0,0.0
2023-11-06,12029.704660966192,12453.576877556596,1,1,,,0.0,0.0
2023-11-07,12078.856051041876,12504.526489220414,1,1,,,0.0,0.0
2023-11-08,12078.856051041876,12504.526489220414,1,1,,,0.0,0.0
2023-11-09,11851.995974137579,12269.366653404984,1,1,,,0.0,0.0
2023-11-10,11851.995974137579,12269.366653404984,1,1,,,0.0,0.0
2023-11-13,11897.368364884649,12316.399009667191,1,1,,,0.0,0.0
2023-11-14,11984.331331803594,12406.543548546586,1,1,,,0.0,0.0
2023-11-16,12169.600832536016,12598.591201744828,1,1,,,0.0,0.0
2023-11-17,12033.48553712586,12457.496078453813,1,1,,,0.0,0.0
2023-11-20,12109.104937150274,12535.882041893754,1,1,,,0.0,0.0
2023-11-21,12082.637865617071,12508.446662865434,1,1,,,0.0,0.0
2023-11-22,12128.009317948614,12555.478046379838,1,1,,,0.0,0.0
2023-11-23,12154.477327897344,12582.914398155961,1,1,,,0.0,0.0
2023-11-24,12082.637865617071,12508.446662865434,1,1,,,0.0,0.0
2023-11-27,12007.01752717713,12430.05972667769,1,1,,,0.0,0.0
2023-11-28,12044.828165604864,12469.253681145463,1,1,,,0.0,0.0
2023-11-29,11908.71193177918,12328.157585106645,1,1,,,0.0,0.0
2023-11-30,11851.995974137579,12269.366653404984,1,1,,,0.0,0.0
2023-12-01,11700.756235673223,12112.593753777299,1,1,,,0.0,0.0
2023-12-04,11670.508287980352,12081.239173851762,1,1,,,0.0,0.0
2023-12-05,11625.135897233282,12034.206817589555,1,1,,,0.0,0.0
2023-12-06,11617.574144913946,12026.368415795121,1,1,,,0.0,0.0
2023-12-07,11776.376574113165,12190.980689965043,1,1,,,0.0,0.0
2023-12-08,11780.157450272833,12194.89989086226,1,1,,,0.0,0.0
2023-12-11,11806.625460221563,12222.336242638383,1,1,,,0.0,0.0
2023-12-12,11817.96715028504,12234.09287258223,1,1,,,0.0,0.0
2023-12-13,11757.471254899297,12171.383712731156,1,1,,,0.0,0.0
2023-12-14,11980.550455643926,12402.62434764937,1,1,,,0.0,0.0
2023-12-15,12143.13469941834,12571.15679546431,1,1,,,0.0,0.0
2023-12-18,12317.060633256231,12751.4458732231,1,1,,,0.0,0.0
2023-12-19,12634.664553239141,13080.66944881514,1,1,,,0.0,0.0
2023-12-20,12551.483400895391,12994.445083580766,1,1,,,0.0,0.0
2023-12-21,12551.483400895391,12994.445083580766,1,1,,,0.0,0.0
2023-12-22,12630.884615495,13076.751220665727,1,1,,,0.0,0.0
2023-12-26,12725.409334733282,13174.734161339555,1,1,,,0.0,0.0
2023-12-27,12638.446367814337,13084.58962246016,1,1,,,0.0,0.0
2023-12-28,12740.533777787481,13190.411937676225,1,1,,,0.0,0.0
2024-01-02,12831.277620866094,13284.475677452836,1,1,,,0.0,0.0
2024-01-03,12774.56260164002,13225.685718498979,1,1,,,0.0,0.0
2024-01-04,12865.306444718633,13319.74945827559,1,1,,,0.0,0.0
2024-01-05,12751.876406266485,13202.169540367875,1,1,,,0.0,0.0
2024-01-08,12691.380510880743,13139.4603805168,1,1,,,0.0,0.0
2024-01-09,12646.008120133672,13092.428024254594,1,1,,,0.0,0.0
2024-01-10,12566.605967118536,13010.12091442183,1,1,,,0.0,0.0
2024-01-11,12600.635729386602,13045.395667992387,1,1,,,0.0,0.0
2024-01-12,12623.322863175665,13068.912818871293,1,1,,,0.0,0.0
2024-01-15,12755.656344010626,13206.087768517289,1,1,,,0.0,0.0
2024-01-16,12676.256067826544,13123.78260418013,1,1,,,0.0,0.0
2024-01-17,12838.83937318543,13292.31407924727,1,1,,,0.0,0.0
2024-01-18,13016.548060014044,13476.52430339888,1,1,,,0.0,0.0
2024-01-19,13080.823893143926,13543.15169139937,1,1,,,0.0,0.0
2024-01-22,13111.071840836797,13574.506271324906,1,1,,,0.0,0.0
2024-01-23,13065.699450089727,13527.4739150627,1,1,,,0.0,0.0
2024-01-24,12963.61297853211,13421.652572594438,1,1,,,0.0,0.0
2024-01-25,12774.56260164002,13225.685718498979,1,1,,,0.0,0.0
2024-01-26,12770.781725480352,13221.766517601762,1,1,,,0.0,0.0
2024-01-29,12906.897959306036,13362.86261364058,1,1,,,0.0,0.0
2024-01-30,12808.59142549256,13260.959499321732,1,1,,,0.0,0.0
2024-01-31,12967.393854691778,13425.571773491654,1,1,,,0.0,0.0
2024-02-01,12990.080050065313,13449.087951622758,1,1,,,0.0,0.0
2024-02-02,12906.897959306036,13362.86261364058,1,1,,,0.0,0.0
2024-02-05,13080.823893143926,13543.15169139937,1,1,,,0.0,0.0
2024-02-06,13440.021204545294,13915.490367852006,1,1,,,0.0,0.0
2024-02-07,13568.573809220587,14048.746116600785,1,1,,,0.0,0.0
2024-02-08,13061.91857393006,13523.554714165482,1,1,,,0.0,0.0
2024-02-09,12885.82302339295,13341.016643486771,1,1,,,0.0,0.0
2024-02-14,12940.766314103399,13397.970054589066,1,1,,,0.0,0.0
2024-02-15,12972.161005570684,13430.513332329545,1,1,,,0.0,0.0
2024-02-16,12834.804186417852,13288.131263695512,1,1,,,0.0,0.0
2024-02-19,12877.974115922247,13332.880580864701,1,1,,,0.0,0.0
2024-02-20,13011.406481339727,13471.1946181877,1,1,,,0.0,0.0
2024-02-21,12928.992952897344,13385.765960655961,1,1,,,0.0,0.0
2024-02-22,13109.519701554571,13572.897346459184,1,1,,,0.0,0.0
2024-02-23,12987.859758927618,13446.786430321488,1,1,,,0.0,0.0
2024-02-26,12995.708666398321,13454.922492943559,1,1,,,0.0,0.0
2024-02-27,13050.651018693243,13511.87493129805,1,1,,,0.0,0.0
2024-02-28,13184.08432252625,13650.189941368852,1,1,,,0.0,0.0
2024-02-29,13101.670794083868,13564.761283837113,1,1,,,0.0,0.0
2024-03-01,12936.84092195252,13393.901050530229,1,1,,,0.0,0.0
2024-03-04,12932.916468217169,13389.833019219193,1,1,,,0.0,0.0
2024-03-05,12913.29419954041,13369.492862664018,1,1,,,0.0,0.0
2024-03-06,12850.503878190313,13304.405334435258,1,1,,,0.0,0.0
2024-03-07,12928.992952897344,13385.765960655961,1,1,,,0.0,0.0
2024-03-08,12885.82302339295,13341.016643486771,1,1,,,0.0,0.0
2024-03-11,12901.520838334356,13357.288768730912,1,1,,,0.0,0.0
2024-03-12,12944.689829423223,13402.037113152299,1,1,,,0.0,0.0
2024-03-13,12921.144045426641,13377.62989803389,1,1,,,0.0,0.0
2024-03-14,13011.406481339727,13471.1946181877,1,1,,,0.0,0.0
2024-03-15,13074.19867952088,13536.284091912064,1,1,,,0.0,0.0
2024-03-18,13070.274225785528,13532.21606060103,1,1,,,0.0,0.0
2024-03-19,12925.068499161993,13381.697929344926,1,1,,,0.0,0.0
2024-03-20,12913.29419954041,13369.492862664018,1,1,,,0.0,0.0
2024-03-21,12618.959230973516,13064.389541588578,1,1,,,0.0,0.0
2024-03-22,12579.638938989845,13157.95523449019,0,1,SELL,,25.584087627722894,0.0
2024-03-25,12579.638938989845,12999.300067864213,0,1,,,0.0,0.0
2024-03-26,12579.638938989845,13068.45660015181,0,1,,,0.0,0.0
2024-03-27,12579.638938989845,13308.47239299849,0,1,,,0.0,0.0
2024-03-28,12579.638938989845,13231.179798088822,0,1,,,0.0,0.0
2024-04-01,12579.638938989845,13296.268299065385,0,1,,,0.0,0.0
2024-04-02,12579.638938989845,13292.20026775435,0,1,,,0.0,0.0
2024-04-03,12579.638938989845,13198.634574852738,0,1,,,0.0,0.0
2024-04-04,12579.638938989845,13288.131263695512,0,1,,,0.0,0.0
2024-04-05,12579.638938989845,13410.17317577437,0,1,,,0.0,0.0
2024-04-08,12579.638938989845,13499.670837364945,0,1,,,0.0,0.0
2024-04-09,12616.184743517568,13597.303588829789,1,1,BUY,,26.52744949317289,0.0
2024-04-10,12484.133256548574,13454.922492943559,1,1,,,0.0,0.0
2024-04-11,12601.094047182729,13581.032436333451,1,1,,,0.0,0.0
2024-04-12,12446.405162447621,13414.24315258101,1,1,,,0.0,0.0
2024-04-15,12461.494956606557,13430.513332329545,1,1,,,0.0,0.0
2024-04-16,12393.582763308217,13357.288768730912,1,1,,,0.0,0.0
2024-04-17,12446.405162447621,13414.24315258101,1,1,,,0.0,0.0
2024-04-18,12325.670570009877,13284.06420513228,1,1,,,0.0,0.0
2024-04-19,12442.63045846813,13410.17317577437,1,1,,,0.0,0.0
2024-04-22,12435.084659212758,13402.037113152299,1,1,,,0.0,0.0
2024-04-23,12269.07617341869,13223.04276271895,1,1,,,0.0,0.0
2024-04-24,12118.159286135366,13060.32053752974,1,1,,,0.0,0.0
2024-04-25,12076.656488054921,13015.57122036055,1,1,,,0.0,0.0
2024-04-26,12114.38638650768,13056.252506218705,1,1,,,0.0,0.0
2024-04-29,12189.844379061391,13137.613132439408,1,1,,,0.0,0.0
2024-04-30,12155.888282412221,13101.000850640092,1,1,,,0.0,0.0
2024-05-02,12238.892976397206,13190.498512230668,1,1,,,0.0,0.0
2024-05-03,12397.355662935903,13361.356800041947,1,1,,,0.0,0.0
2024-05-06,12555.819251650502,13532.21606060103,1,1,,,0.0,0.0
2024-05-07,12382.26406442516,13345.084674797807,1,1,,,0.0,0.0
2024-05-08,12314.350968950917,13271.859138451371,1,1,,,0.0,0.0
2024-05-09,12314.350968950917,13271.859138451371,1,1,,,0.0,0.0
2024-05-10,12506.77155649059,13479.331653557572,1,1,,,0.0,0.0
2024-05-13,12684.097838991811,13670.529125176225,1,1,,,0.0,0.0
2024-05-14,12835.014726275136,13833.251350365434,1,1,,,0.0,0.0
2024-05-15,12925.566121691396,13930.886047325883,1,1,,,0.0,0.0
2024-05-16,13004.797916048696,14016.315677605424,1,1,,,0.0,0.0
2024-05-17,12899.154922121694,13902.408855400834,1,1,,,0.0,0.0
2024-05-20,12721.82773744457,13711.210411034379,1,1,,,0.0,0.0
2024-05-21,12808.60533105724,13804.77610393599,1,1,,,0.0,0.0
2024-05-22,12593.549150103261,13572.897346459184,1,1,,,0.0,0.0
2024-05-23,12540.72765313976,13515.943935356889,1,1,,,0.0,0.0
2024-05-24,12340.76216852062,13300.33633037642,1,1,,,0.0,0.0
2024-05-27,12404.901462191274,13369.492862664018,1,1,,,0.0,0.0
2024-05-28,12235.12007676952,13186.430480919633,1,1,,,0.0,0.0
2024-05-29,12306.805169695546,13263.7230758293,1,1,,,0.0,0.0
2024-05-31,12193.61818086498,13141.682136498246,1,1,,,0.0,0.0
2024-06-03,12148.34248315685,13092.864788018021,1,1,,,0.0,0.0
2024-06-04,12303.033172243764,13259.656017266068,1,1,,,0.0,0.0
2024-06-05,12374.717362993886,13336.947639427934,1,1,,,0.0,0.0
2024-06-06,12438.858461016347,13406.106117211137,1,1,,,0.0,0.0
2024-06-07,12340.76216852062,13300.33633037642,1,1,,,0.0,0.0
2024-06-10,12314.350968950917,13271.859138451371,1,1,,,0.0,0.0
2024-06-11,12374.717362993886,13336.947639427934,1,1,,,0.0,0.0
2024-06-12,12257.757474535634,13210.838668785844,1,1,,,0.0,0.0
2024-06-13,12272.849073046376,13227.110794029984,1,1,,,0.0,0.0
2024-06-14,12253.983672732045,13206.769664727006,1,1,,,0.0,0.0
2024-06-17,12227.57427751415,13178.294418297563,1,1,,,0.0,0.0
2024-06-18,12250.211675280263,13202.702606163773,1,1,,,0.0,0.0
2024-06-19,12295.48647081249,13251.518981896195,1,1,,,0.0,0.0
2024-06-20,12348.30796777599,13308.47239299849,1,1,,,0.0,0.0
2024-06-21,12419.99396287792,13385.765960655961,1,1,,,0.0,0.0
2024-06-24,12695.418342226674,13682.735164604936,1,1,,,0.0,0.0
2024-06-25,12619.958545321157,13601.372592888627,1,1,,,0.0,0.0
2024-06-26,12438.858461016347,13406.106117211137,1,1,,,0.0,0.0
2024-06-27,12374.717362993886,13336.947639427934,1,1,,,0.0,0.0
2024-06-28,12431.312661760976,13397.970054589066,1,1,,,0.0,0.0
2024-07-01,12389.808961504628,13353.219764672074,1,1,,,0.0,0.0
2024-07-02,12393.582763308217,13357.288768730912,1,1,,,0.0,0.0
2024-07-03,12446.405162447621,13414.24315258101,1,1,,,0.0,0.0
2024-07-04,12518.089353197744,13491.534774742875,1,1,,,0.0,0.0
2024-07-05,12521.86225282543,13495.60280605391,1,1,,,0.0,0.0
2024-07-08,12529.407149904897,13503.737895928178,1,1,,,0.0,0.0
2024-07-09,12552.045449846913,13528.147056542191,1,1,,,0.0,0.0
2024-07-10,12578.456649416616,13556.62424846724,1,1,,,0.0,0.0
2024-07-11,12665.234243029287,13650.189941368852,1,1,,,0.0,0.0
2024-07-12,12819.924029940297,13816.980197869096,1,1,,,0.0,0.0
2024-07-15,12850.106324785878,13849.523475609574,1,1,,,0.0,0.0
2024-07-16,12914.246520632436,13918.680980644975,1,1,,,0.0,0.0
2024-07-17,13012.34461747997,14024.452712975297,1,1,,,0.0,0.0
2024-07-18,12978.387618654897,13987.839458428178,1,1,,,0.0,0.0
2024-07-19,12872.744624727895,13873.932636223588,1,1,,,0.0,0.0
2024-07-22,13004.797916048696,14016.315677605424,1,1,,,0.0,0.0
2024-07-23,12895.382022494008,13898.340824089799,1,1,,,0.0,0.0
2024-07-24,12910.47362100475,13914.61294933394,1,1,,,0.0,0.0
2024-07-25,12872.744624727895,13873.932636223588,1,1,,,0.0,0.0
2024-07-26,13061.390508288076,14077.335174523148,1,1,,,0.0,0.0
2024-07-29,13091.57370530956,14109.87942501143,1,1,,,0.0,0.0
2024-07-30,13200.989598864247,14227.854278527055,1,1,,,0.0,0.0
2024-07-31,13276.448493593862,14309.21587749556,1,1,,,0.0,0.0
2024-08-01,13231.171893709829,14260.397556267533,1,1,,,0.0,0.0
2024-08-02,13174.580203646352,14199.379032097611,1,1,,,0.0,0.0
2024-08-05,13061.390508288076,14077.335174523148,1,1,,,0.0,0.0
2024-08-06,13174.580203646352,14199.379032097611,1,1,,,0.0,0.0
2024-08-07,13238.7176929652,14268.533618889604,1,1,,,0.0,0.0
2024-08-08,13642.42246400707,14703.817832909379,1,1,,,0.0,0.0
2024-08-09,13649.966458910634,14711.951950035844,1,1,,,0.0,0.0
2024-08-12,13834.841247194936,14911.288402519975,1,1,,,0.0,0.0
2024-08-13,14015.942233675649,15106.555850945268,1,1,,,0.0,0.0
2024-08-14,14136.676826113393,15236.734798393998,1,1,,,0.0,0.0
2024-08-15,14083.854426973989,15179.7804145439,1,1,,,0.0,0.0
2024-08-16,14076.310432070424,15171.646297417436,1,1,,,0.0,0.0
2024-08-19,14135.451671236684,15235.413806877885,1,1,,,0.0,0.0
2024-08-20,14135.451671236684,15235.413806877885,1,1,,,0.0,0.0
2024-08-21,14143.288873308828,15243.864067040238,1,1,,,0.0,0.0
2024-08-22,14096.26114999645,15193.157642327104,1,1,,,0.0,0.0
2024-08-23,14503.847081774404,15632.626617394242,1,1,,,0.0,0.0
2024-08-26,14366.677550905873,15484.7271232231,1,1,,,0.0,0.0
2024-08-27,14366.677550905873,15484.7271232231,1,1,,,0.0,0.0
2024-08-28,14276.539352053334,15387.537944756303,1,1,,,0.0,0.0
2024-08-29,14331.406983965566,15446.6975478752,1,1,,,0.0,0.0
2024-08-30,14401.951726549794,15522.760589562211,1,1,,,0.0,0.0
2024-09-02,14394.113622301747,15514.309356652055,1,1,,,0.0,0.0
2024-09-03,14460.73841058605,15586.145809136186,1,1,,,0.0,0.0
2024-09-04,14672.369931811025,15814.332015953813,1,1,,,0.0,0.0
2024-09-05,14488.169971102407,15615.723178826127,1,1,,,0.0,0.0
2024-09-06,14394.113622301747,15514.309356652055,1,1,,,0.0,0.0
2024-09-09,14366.677550905873,15484.7271232231,1,1,,,0.0,0.0
2024-09-10,14358.839446657827,15476.275890312943,1,1,,,0.0,0.0
2024-09-11,14272.621202105214,15383.313301049027,1,1,,,0.0,0.0
2024-09-12,14155.046029680898,15256.540916405473,1,1,,,0.0,0.0
2024-09-13,14190.317498797109,15294.571464501176,1,1,,,0.0,0.0
2024-09-16,14272.621202105214,15383.313301049027,1,1,,,0.0,0.0
2024-09-17,14100.17929994457,15197.382286034379,1,1,,,0.0,0.0
2024-09-18,13955.172567003896,15041.032531700883,1,1,,,0.0,0.0
2024-09-19,13865.03256379955,14943.84140773848,1,1,,,0.0,0.0
2024-09-20,13727.86303293102,14795.941913567338,1,1,,,0.0,0.0
2024-09-23,13681.84820843693,14846.652229271684,0,1,SELL,,28.96869393530911,0.0
2024-09-24,13681.84820843693,14969.194133721146,0,1,,,0.0,0.0
2024-09-25,13681.84820843693,14939.6148185356,0,1,,,0.0,0.0
2024-09-26,13681.84820843693,14990.324161492143,0,1,,,0.0,0.0
2024-09-27,13681.84820843693,14948.066051445756,0,1,,,0.0,0.0
2024-09-30,13681.84820843693,15003.00198360518,0,1,,,0.0,0.0
2024-10-01,13681.84820843693,15108.643367729936,0,1,,,0.0,0.0
2024-10-02,13681.84820843693,14986.097572289262,0,1,,,0.0,0.0
2024-10-03,13681.84820843693,14842.425640068803,0,1,,,0.0,0.0
2024-10-04,13681.84820843693,14825.522201500688,0,1,,,0.0,0.0
2024-10-07,13681.84820843693,14550.854213677201,0,1,,,0.0,0.0
2024-10-08,13681.84820843693,14495.91925426558,0,1,,,0.0,0.0
2024-10-09,13681.84820843693,14305.763595543656,0,1,,,0.0,0.0
2024-10-10,13681.84820843693,14301.537979088578,0,1,,,0.0,0.0
2024-10-11,13681.84820843693,14309.990184746537,0,1,,,0.0,0.0
2024-10-14,13681.84820843693,14356.4729385002,0,1,,,0.0,0.0
2024-10-15,13681.84820843693,14339.569499932084,0,1,,,0.0,0.0
2024-10-16,13681.84820843693,14386.051280937943,0,1,,,0.0,0.0
2024-10-17,13681.84820843693,14364.924171410355,0,1,,,0.0,0.0
2024-10-18,13681.84820843693,14293.086746178422,0,1,,,0.0,0.0
2024-10-21,13681.84820843693,14348.02073284224,0,1,,,0.0,0.0
2024-10-22,13681.84820843693,14512.822692833695,0,1,,,0.0,0.0
2024-10-23,13731.645400111096,14504.370487175736,1,1,BUY,,28.276464191233078,0.0
2024-10-24,13747.620806757825,14521.273925743852,1,1,,,0.0,0.0
2024-10-25,13723.658156458752,14495.91925426558,1,1,,,0.0,0.0
2024-10-28,13755.60896975221,14529.72613140181,1,1,,,0.0,0.0
2024-10-29,13803.53151232423,14580.432556114945,1,1,,,0.0,0.0
2024-10-30,13803.53151232423,14580.432556114945,1,1,,,0.0,0.0
2024-10-31,13711.678210322278,14483.243377648148,1,1,,,0.0,0.0
2024-11-01,13715.670912806409,14487.468021355424,1,1,,,0.0,0.0
2024-11-04,13859.443137232678,14639.592159233842,1,1,,,0.0,0.0
2024-11-05,14047.147959772961,14838.200996361527,1,1,,,0.0,0.0
2024-11-06,13847.462271754162,14626.915309868607,1,1,,,0.0,0.0
2024-11-07,13923.34292513551,14707.203968010697,1,1,,,0.0,0.0
2024-11-08,13719.66453463258,14491.693637810502,1,1,,,0.0,0.0
2024-11-11,13683.721018854993,14453.662116966996,1,1,,,0.0,0.0
2024-11-12,13500.012576167004,14259.281814537797,1,1,,,0.0,0.0
2024-11-13,13420.139220301526,14174.768512688432,1,1,,,0.0,0.0
2024-11-14,13368.22029787721,14119.83355327681,1,1,,,0.0,0.0
2024-11-18,13416.144679133313,14170.54192348555,1,1,,,0.0,0.0
2024-11-19,13683.721018854993,14453.662116966996,1,1,,,0.0,0.0
2024-11-21,13396.176570002453,14149.41384121016,1,1,,,0.0,0.0
2024-11-22,13583.879553858655,14348.02073284224,1,1,,,0.0,0.0
2024-11-25,13631.803935114758,14398.72910305098,1,1,,,0.0,0.0
2024-11-26,13655.76658541383,14424.083774529252,1,1,,,0.0,0.0
2024-11-27,13448.094573084729,14204.347827873979,1,1,,,0.0,0.0
2024-11-28,13376.208460871594,14128.28575893477,1,1,,,0.0,0.0
2024-11-29,13416.144679133313,14170.54192348555,1,1,,,0.0,0.0
2024-12-02,13456.082736079114,14212.800033531938,1,1,,,0.0,0.0
2024-12-03,14019.190768305676,14808.619735680375,1,1,,,0.0,0.0
2024-12-04,14003.216281000989,14791.717269860063,1,1,,,0.0,0.0
2024-12-05,14162.963912073987,14960.744846306596,1,1,,,0.0,0.0
2024-12-06,14170.949317042248,14969.194133721146,1,1,,,0.0,0.0
2024-12-09,14266.798998896496,15070.61184688643,1,1,,,0.0,0.0
2024-12-10,14430.539332453625,15243.864067040238,1,1,,,0.0,0.0
2024-12-11,14785.976271693127,15619.948795281205,1,1,,,0.0,0.0
2024-12-12,14626.22955996217,15450.922191582475,1,1,,,0.0,0.0
2024-12-13,14658.178534571545,15484.7271232231,1,1,,,0.0,0.0
2024-12-16,14482.4573355359,15298.798053704057,1,1,,,0.0,0.0
2024-12-17,14817.927084986584,15653.755672417436,1,1,,,0.0,0.0
2024-12-18,14750.03367525758,15581.918247185502,1,1,,,0.0,0.0
2024-12-19,14933.74395662965,15776.300495110307,1,1,,,0.0,0.0
2024-12-20,14614.248694483655,15438.24534221724,1,1,,,0.0,0.0
2024-12-23,14598.275126521008,15421.34384914473,1,1,,,0.0,0.0
2024-12-26,14590.287882868664,15412.892616234574,1,1,,,0.0,0.0
2024-12-27,14514.407229487317,15332.603958092484,1,1,,,0.0,0.0
2024-12-30,14474.470091883557,15290.3468207939,1,1,,,0.0,0.0
2025-01-02,14570.318854395764,15391.76356121138,1,1,,,0.0,0.0
2025-01-03,14398.591277186291,15210.060108147416,1,1,,,0.0,0.0
2025-01-06,14566.325232569592,15387.537944756303,1,1,,,0.0,0.0
2025-01-07,14614.248694483655,15438.24534221724,1,1,,,0.0,0.0
2025-01-08,14526.389933649914,15345.282752953324,1,1,,,0.0,0.0
2025-01-09,14514.407229487317,15332.603958092484,1,1,,,0.0,0.0
2025-01-10,14458.49560457887,15273.444354973588,1,1,,,0.0,0.0
2025-01-13,14474.470091883557,15290.3468207939,1,1,,,0.0,0.0
2025-01-14,14762.016379420178,15594.597042046342,1,1,,,0.0,0.0
2025-01-15,14941.729361597912,15784.749782524857,1,1,,,0.0,0.0
2025-01-16,14961.699309412854,15805.879810295854,1,1,,,0.0,0.0
2025-01-17,15133.428725306409,15987.585208855424,1,1,,,0.0,0.0
2025-01-20,15161.384078089612,16017.16452404097,1,1,,,0.0,0.0
2025-01-21,15173.364943568127,16029.841373406205,1,1,,,0.0,0.0
2025-01-22,15285.189112727063,16148.1615523918,1,1,,,0.0,0.0
2025-01-23,15209.308459345715,16067.872894249711,1,1,,,0.0,0.0
2025-01-24,15133.428725306409,15987.585208855424,1,1,,,0.0,0.0
2025-01-27,15428.95949846925,16300.283744774613,1,1,,,0.0,0.0
2025-01-28,15612.66977984132,16494.665992699418,1,1,,,0.0,0.0
2025-01-29,15504.840151850598,16380.572402916703,1,1,,,0.0,0.0
2025-01-30,15436.947661463635,16308.735950432572,1,1,,,0.0,0.0
2025-01-31,15416.979552332776,16287.607868157182,1,1,,,0.0,0.0
2025-02-03,15612.66977984132,16494.665992699418,1,1,,,0.0,0.0
2025-02-04,15596.693453852551,16477.7615813835,1,1,,,0.0,0.0
2025-02-05,15708.518542353528,16596.0827331169,1,1,,,0.0,0.0
2025-02-06,15892.225146357434,16790.461090050492,1,1,,,0.0,0.0
2025-02-07,15720.497569147961,16608.757636986527,1,1,,,0.0,0.0
2025-02-10,15860.278010432141,16756.658103905473,1,1,,,0.0,0.0
2025-02-11,15620.657023493664,16503.117225609574,1,1,,,0.0,0.0
2025-02-12,15648.612376276868,16532.69654079512,1,1,,,0.0,0.0
2025-02-13,15397.010523859875,16266.478813133988,1,1,,,0.0,0.0
2025-02-14,15552.76361376466,16431.27980037764,1,1,,,0.0,0.0
2025-02-17,15201.321215693371,16059.421661339555,1,1,,,0.0,0.0
2025-02-18,15880.246119563,16777.786186180863,1,1,,,0.0,0.0
2025-02-19,15896.220606867688,16794.688652001176,1,1,,,0.0,0.0
2025-02-20,15944.145907465832,16845.39799495772,1,1,,,0.0,0.0
2025-02-21,15727.94607836427,16616.63883968428,1,1,,,0.0,0.0
2025-02-24,15923.012072626965,16823.03646846846,1,1,,,0.0,0.0
2025-02-25,15901.80836779298,16800.601013146195,1,1,,,0.0,0.0
2025-02-26,15939.972094599621,16840.981719933305,1,1,,,0.0,0.0
2025-02-27,16330.100405756848,17253.773086510453,1,1,,,0.0,0.0
2025-02-28,16071.428813044446,16980.074928246293,1,1,,,0.0,0.0
2025-03-05,16436.113413874526,17365.944526634965,1,1,,,0.0,0.0
2025-03-06,16584.530154292006,17522.982986412797,1,1,,,0.0,0.0
2025-03-07,16571.810137812514,17509.524047814164,1,1,,,0.0,0.0
2025-03-10,16537.882739130873,17473.625762902055,1,1,,,0.0,0.0
2025-03-11,16385.22599322023,17312.10099025801,1,1,,,0.0,0.0
2025-03-12,16380.98414904298,17307.612731896195,1,1,,,0.0,0.0
2025-03-13,16631.175730769057,17572.338264427934,1,1,,,0.0,0.0
2025-03-14,16906.81102282228,17863.98556514815,1,1,,,0.0,0.0
2025-03-17,16987.378481928725,17949.233291588578,1,1,,,0.0,0.0
2025-03-18,17148.51891619386,18119.734580956254,1,1,,,0.0,0.0
2025-03-19,17084.911479060072,18052.432105980668,1,1,,,0.0,0.0
2025-03-20,17203.64266497316,18178.060539208207,1,1,,,0.0,0.0
2025-03-21,17118.83520037355,18088.326499901566,1,1,,,0.0,0.0
2025-03-24,16995.860331599135,17958.207862816605,1,1,,,0.0,0.0
2025-03-25,16932.252894465346,17890.90538784102,1,1,,,0.0,0.0
2025-03-26,17042.505908076186,18007.563140831742,1,1,,,0.0,0.0
2025-03-27,17148.51891619386,18119.734580956254,1,1,,,0.0,0.0
2025-03-28,17097.631495539565,18065.8910445793,1,1,,,0.0,0.0
2025-03-31,17114.593356196303,18083.83824153975,1,1,,,0.0,0.0
2025-04-01,17496.23981768312,18487.65503688887,1,1,,,0.0,0.0
2025-04-02,17186.682643000502,18160.115287743363,1,1,,,0.0,0.0
2025-04-03,17491.997973505873,18483.166778527055,1,1,,,0.0,0.0
2025-04-04,17093.3914900464,18061.40473171309,1,1,,,0.0,0.0
2025-04-07,17017.062197749037,17980.641372643266,1,1,,,0.0,0.0
2025-04-08,17178.202632014174,18151.14266201094,1,1,,,0.0,0.0
2025-04-09,17322.37936693849,18303.694808922563,1,1,,,0.0,0.0
2025-04-10,16843.20174700441,17796.681144676957,1,1,,,0.0,0.0
2025-04-11,16978.896632258315,17940.25872036055,1,1,,,0.0,0.0
2025-04-14,17110.35518938722,18079.353874169145,1,1,,,0.0,0.0
2025-04-15,17246.050074641127,18222.93144985274,1,1,,,0.0,0.0
2025-04-16,17178.202632014174,18151.14266201094,1,1,,,0.0,0.0
2025-04-17,17301.177500788588,18281.261299095902,1,1,,,0.0,0.0
2025-04-22,17369.02494341554,18353.0500869377,1,1,,,0.0,0.0
2025-04-23,17487.75980669679,18478.68241115645,1,1,,,0.0,0.0
2025-04-24,17674.340273920912,18676.10157772139,1,1,,,0.0,0.0
2025-04-25,17856.68257433595,18869.036376915727,1,1,,,0.0,0.0
2025-04-28,18013.581164423842,19035.049407921586,1,1,,,0.0,0.0
2025-04-29,17763.393260065932,18770.32776638106,1,1,,,0.0,0.0
2025-04-30,18161.999743525404,19192.089813195023,1,1,,,0.0,0.0
2025-05-02,17899.08998400392,18913.907287560258,1,1,,,0.0,0.0
2025-05-05,17810.0369978589,18819.68109890059,1,1,,,0.0,0.0
2025-05-06,16486.99899584474,17419.786117516313,1,1,,,0.0,0.0
2025-05-07,16526.228010863408,17594.771774254594,0,1,SELL,,34.30282568057519,0.0
2025-05-08,16526.228010863408,17137.113388024125,0,1,,,0.0,0.0
2025-05-09,16526.228010863408,17199.931495629105,0,1,,,0.0,0.0
2025-05-12,16526.228010863408,17020.457580529008,0,1,,,0.0,0.0
2025-05-13,16526.228010863408,17186.470611534867,0,1,,,0.0,0.0
2025-05-14,16526.228010863408,17280.692909203324,0,1,,,0.0,0.0
2025-05-15,16526.228010863408,17280.692909203324,0,1,,,0.0,0.0
2025-05-16,16526.228010863408,16957.639472924027,0,1,,,0.0,0.0
2025-05-19,16526.228010863408,17155.06253048018,0,1,,,0.0,0.0
2025-05-20,16526.228010863408,17226.851318321977,0,1,,,0.0,0.0
2025-05-21,16526.228010863408,17101.218994103227,0,1,,,0.0,0.0
2025-05-22,16526.228010863408,16944.17858882979,0,1,,,0.0,0.0
2025-05-23,16526.228010863408,17096.73073574141,0,1,,,0.0,0.0
2025-05-26,16526.228010863408,17033.91651912764,0,1,,,0.0,0.0
2025-05-27,16526.228010863408,17199.931495629105,0,1,,,0.0,0.0
2025-05-28,16526.228010863408,17123.652503929887,0,1,,,0.0,0.0
2025-05-29,16526.228010863408,17020.457580529008,0,1,,,0.0,0.0
2025-05-30,16526.228010863408,16832.009094200883,0,1,,,0.0,0.0
2025-06-02,16526.228010863408,16598.693588219438,0,1,,,0.0,0.0
2025-06-03,16526.228010863408,16446.13949581221,0,1,,,0.0,0.0
2025-06-04,16526.228010863408,16154.495113335404,0,1,,,0.0,0.0
2025-06-05,16526.228010863408,16289.100063286576,0,1,,,0.0,0.0
2025-06-06,16526.228010863408,16351.915252648148,0,1,,,0.0,0.0
2025-06-09,16526.228010863408,16280.126464806352,0,1,,,0.0,0.0
2025-06-10,16526.228010863408,15930.153205834184,0,1,,,0.0,0.0
2025-06-11,16526.228010863408,15764.140174828324,0,1,,,0.0,0.0
2025-06-12,16526.228010863408,15835.928962670121,0,1,,,0.0,0.0
2025-06-13,16526.228010863408,15934.638545952592,0,1,,,0.0,0.0
2025-06-16,16526.228010863408,16073.730781517777,0,1,,,0.0,0.0
2025-06-17,16526.228010863408,15939.126804314408,0,1,,,0.0,0.0
2025-06-18,16526.228010863408,15943.61311718062,0,1,,,0.0,0.0
2025-06-20,16526.228010863408,15791.059997521195,0,1,,,0.0,0.0
2025-06-23,16526.228010863408,15934.638545952592,0,1,,,0.0,0.0
2025-06-24,16526.228010863408,15889.769580803666,0,1,,,0.0,0.0
2025-06-25,16526.228010863408,15728.242862664018,0,1,,,0.0,0.0
2025-06-26,16526.228010863408,15791.059997521195,0,1,,,0.0,0.0
2025-06-27,16526.228010863408,15809.007194481645,0,1,,,0.0,0.0
2025-06-30,16526.228010863408,16064.75621028975,0,1,,,0.0,0.0
2025-07-01,16526.228010863408,16347.428939781938,0,1,,,0.0,0.0
2025-07-02,16283.136228096453,16266.66460796431,1,1,BUY,,32.30385231331935,0.0
2025-07-03,16390.822328102557,16374.350707970414,1,1,,,0.0,0.0
2025-07-04,16399.79495383498,16383.323333702836,1,1,,,0.0,0.0
2025-07-07,16211.347440254656,16194.875820122514,1,1,,,0.0,0.0
2025-07-08,16076.742490303484,16060.270870171342,1,1,,,0.0,0.0
2025-07-09,15820.992501747576,15804.520881615434,1,1,,,0.0,0.0
2025-07-10,15856.886895668475,15840.415275536332,1,1,,,0.0,0.0
2025-07-11,15820.992501747576,15804.520881615434,1,1,,,0.0,0.0
2025-07-14,15861.374181282488,15844.902561150346,1,1,,,0.0,0.0
2025-07-15,15695.359204781023,15678.88758464888,1,1,,,0.0,0.0
2025-07-16,15650.492185127703,15634.02056499556,1,1,,,0.0,0.0
2025-07-17,15646.005872261492,15629.53425212935,1,1,,,0.0,0.0
2025-07-18,15417.175706398455,15400.704086266313,1,1,,,0.0,0.0
2025-07-21,15479.99186850783,15463.520248375688,1,1,,,0.0,0.0
2025-07-22,15125.530351173846,15109.058731041703,1,1,,,0.0,0.0
2025-07-23,15110.156635266248,15158.41400905684,0,1,SELL,,29.65115178112164,0.0
2025-07-24,15110.156635266248,15073.164337120805,0,1,,,0.0,0.0
2025-07-25,15110.156635266248,15046.242568932328,0,1,,,0.0,0.0
2025-07-28,15110.156635266248,15055.216167412553,0,1,,,0.0,0.0
2025-07-29,15110.156635266248,15127.005928002152,0,1,,,0.0,0.0
2025-07-30,15110.156635266248,15091.111534081254,0,1,,,0.0,0.0
2025-07-31,15110.156635266248,15122.519615135941,0,1,,,0.0,0.0
2025-08-01,15110.156635266248,15005.859916649613,0,1,,,0.0,0.0
2025-08-04,15110.156635266248,15055.216167412553,0,1,,,0.0,0.0
2025-08-05,15110.156635266248,15225.717456780229,0,1,,,0.0,0.0
2025-08-06,15110.156635266248,15427.626827202592,0,1,,,0.0,0.0
2025-08-07,15110.156635266248,15463.520248375688,0,1,,,0.0,0.0
2025-08-08,15110.156635266248,15468.007533989701,0,1,,,0.0,0.0
2025-08-11,15110.156635266248,15629.53425212935,0,1,,,0.0,0.0
2025-08-12,15149.801056834152,15809.007194481645,1,1,BUY,,30.85150041646437,0.0
2025-08-13,15046.762101145676,15701.323039971146,1,1,,,0.0,0.0
2025-08-14,15188.440781565598,15849.388874016557,1,1,,,0.0,0.0
2025-08-15,14921.349839182785,15570.256946526322,1,1,,,0.0,0.0
2025-08-18,14953.151078196457,15603.491847954545,1,1,,,0.0,0.0
2025-08-19,14662.393036814621,15299.625862084184,1,1,,,0.0,0.0
2025-08-20,14526.099884959152,15157.188346825395,1,1,,,0.0,0.0
2025-08-21,14394.348969431809,15019.49784084395,1,1,,,0.0,0.0
2025-08-22,14471.581879588059,15100.212562523637,1,1,,,0.0,0.0
2025-08-25,14639.6762704572,15275.884979210648,1,1,,,0.0,0.0
2025-08-26,14680.563843699387,15318.615844689164,1,1,,,0.0,0.0
2025-08-27,14789.599854441574,15432.56741329268,1,1,,,0.0,0.0
2025-08-28,14807.772522898606,15451.559341393266,1,1,,,0.0,0.0
2025-08-29,14934.978409739426,15584.499919853959,1,1,,,0.0,0.0
2025-09-01,14875.918168040207,15522.777126274857,1,1,,,0.0,0.0
2025-09-02,14635.134034129074,15271.137969933305,1,1,,,0.0,0.0
2025-09-03,14585.159195872238,15218.910167656693,1,1,,,0.0,0.0
2025-09-04,14657.84893891423,15294.876907311234,1,1,,,0.0,0.0
2025-09-05,14671.479371043137,15309.121826134477,1,1,,,0.0,0.0
2025-09-08,14676.021607371262,15313.86883541182,1,1,,,0.0,0.0
2025-09-09,14775.9703530988,15418.32346721724,1,1,,,0.0,0.0
2025-09-10,14762.339920969895,15404.078548393998,1,1,,,0.0,0.0
2025-09-11,14739.625016184738,15380.339611016068,1,1,,,0.0,0.0
2025-09-12,14612.419129343918,15247.399032555375,1,1,,,0.0,0.0
2025-09-15,14630.59179780095,15266.390960655961,1,1,,,0.0,0.0
2025-09-16,14707.823777171066,15347.104709587846,1,1,,,0.0,0.0
2025-09-17,14803.228424998215,15446.810386620316,1,1,,,0.0,0.0
2025-09-18,14916.805741282395,15565.507991753373,1,1,,,0.0,0.0
2025-09-19,14980.409150095871,15631.978767357621,1,1,,,0.0,0.0
2025-09-22,15125.789566965988,15783.913219414506,1,1,,,0.0,0.0
2025-09-23,15153.047638865402,15812.400138817582,1,1,,,0.0,0.0
2025-09-24,14989.495484324387,15641.474731407914,1,1,,,0.0,0.0
2025-09-25,14825.945191355637,15470.551269493852,1,1,,,0.0,0.0
2025-09-26,14766.884018870285,15408.827503166947,1,1,,,0.0,0.0
2025-09-29,14862.288666697434,15508.533180199418,1,1,,,0.0,0.0
2025-09-30,15134.874970408371,15793.408210716996,1,1,,,0.0,0.0
2025-10-01,15203.021546336106,15864.62696834639,1,1,,,0.0,0.0
2025-10-02,15053.100754710129,15707.947452507768,1,1,,,0.0,0.0
2025-10-03,14934.978409739426,15584.499919853959,1,1,,,0.0,0.0
2025-10-06,14925.89207551091,15575.003955803666,1,1,,,0.0,0.0
2025-10-07,15044.01348969548,15698.450515709672,1,1,,,0.0,0.0
2025-10-08,14907.719407053879,15556.01202770308,1,1,,,0.0,0.0
2025-10-09,14907.719407053879,15556.01202770308,1,1,,,0.0,0.0
2025-10-10,14835.029664011887,15480.045288048539,1,1,,,0.0,0.0
2025-10-13,14766.884018870285,15408.827503166947,1,1,,,0.0,0.0
2025-10-14,14780.512589426926,15423.070476494584,1,1,,,0.0,0.0
2025-10-15,14566.986527415207,15199.918239556107,1,1,,,0.0,0.0
2025-10-16,14476.125046702316,15104.960544548783,1,1,,,0.0,0.0
2025-10-17,14544.27162263005,15176.179302178178,1,1,,,0.0,0.0
2025-10-20,14612.419129343918,15247.399032555375,1,1,,,0.0,0.0
2025-10-21,14521.556717844895,15152.440364800248,1,1,,,0.0,0.0
2025-10-22,14607.875031443527,15242.650077782426,1,1,,,0.0,0.0
2025-10-23,14566.986527415207,15199.918239556107,1,1,,,0.0,0.0
2025-10-24,14598.789628001145,15233.155086479936,1,1,,,0.0,0.0
2025-10-27,14639.6762704572,15275.884979210648,1,1,,,0.0,0.0
2025-10-28,14871.37500092595,15518.029144249711,1,1,,,0.0,0.0
2025-10-29,14753.253586741379,15394.582584343705,1,1,,,0.0,0.0
2025-10-30,14934.978409739426,15584.499919853959,1,1,,,0.0,0.0
2025-10-31,14948.606980296066,15598.742893181596,1,1,,,0.0,0.0
2025-11-03,15125.789566965988,15783.913219414506,1,1,,,0.0,0.0
2025-11-04,15307.51252839177,15973.828609429154,1,1,,,0.0,0.0
2025-11-05,15357.487366648606,16026.056411705766,1,1,,,0.0,0.0
2025-11-06,15575.556595774582,16253.956630669389,1,1,,,0.0,0.0
2025-11-07,15389.288605662277,16059.291313133988,1,1,,,0.0,0.0
2025-11-10,15625.530503245285,16306.183460198197,1,1,,,0.0,0.0
2025-11-11,15271.169053049973,15935.846698723588,1,1,,,0.0,0.0
2025-11-12,15148.505402537277,15807.653129540238,1,1,,,0.0,0.0
2025-11-13,15166.678070994309,15826.645057640824,1,1,,,0.0,0.0
2025-11-14,15375.660035105637,16045.048339806352,1,1,,,0.0,0.0
2025-11-17,15402.91810700505,16073.535259209428,1,1,,,0.0,0.0
2025-11-18,15239.3678140363,15902.611797295365,1,1,,,0.0,0.0
2025-11-19,15162.133973093918,15821.896102867875,1,1,,,0.0,0.0
2025-11-21,15139.419068308762,15798.157165489945,1,1,,,0.0,0.0
2025-11-24,15271.169053049973,15935.846698723588,1,1,,,0.0,0.0
2025-11-25,15534.668091746262,16211.22479244307,1,1,,,0.0,0.0
2025-11-26,15743.65005585759,16429.628074608598,1,1,,,0.0,0.0
2025-11-27,15693.678009959152,16377.403190575395,1,1,,,0.0,0.0
2025-11-28,15521.039521189621,16196.981819115434,1,1,,,0.0,0.0
2025-12-01,15748.19415375798,16434.377029381547,1,1,,,0.0,0.0
2025-12-02,15834.513398142746,16524.587715111527,1,1,,,0.0,0.0
2025-12-03,15811.79849335759,16500.848777733598,1,1,,,0.0,0.0
2025-12-04,16061.668030711106,16761.98292537764,1,1,,,0.0,0.0
2025-12-05,15698.220246287277,16382.150199852738,1,1,,,0.0,0.0
2025-12-08,16116.184174509934,16818.956764183793,1,1,,,0.0,0.0
2025-12-09,16038.95312592595,16738.24398799971,1,1,,,0.0,0.0
2025-12-10,16120.728272410324,16823.705718956742,1,1,,,0.0,0.0
2025-12-11,16002.607789011887,16700.26013179854,1,1,,,0.0,0.0
2025-12-12,16202.505280466965,16909.16939540938,1,1,,,0.0,0.0
2025-12-15,16266.107758494309,16975.639198265824,1,1,,,0.0,0.0
2025-12-16,16034.410889597824,16733.496978722367,1,1,,,0.0,0.0
2025-12-17,15884.48730561345,16576.814544640336,1,1,,,0.0,0.0
2025-12-18,16057.12579438298,16757.235916100297,1,1,,,0.0,0.0
2025-12-19,16048.039460154465,16747.739952050004,1,1,,,0.0,0.0
2025-12-22,15957.176117869309,16652.780311547074,1,1,,,0.0,0.0
2025-12-23,16175.246277781418,16880.6815032585,1,1,,,0.0,0.0
2025-12-26,16275.194092722824,16985.135162316117,1,1,,,0.0,0.0
2025-12-29,16411.487244578293,17127.572677574906,1,1,,,0.0,0.0
2025-12-30,16447.832581492356,17165.556533776078,1,1,,,0.0,0.0
2026-01-02,16261.565522166184,16970.89218898848,1,1,,,0.0,0.0
2026-01-05,16316.081665965012,17027.866027794633,1,1,,,0.0,0.0
2026-01-06,16425.115815134934,17141.815650902543,1,1,,,0.0,0.0
2026-01-07,16107.099701853684,16809.462745629105,1,1,,,0.0,0.0
2026-01-08,15766.366822215012,16453.368957482133,1,1,,,0.0,0.0
2026-01-09,15920.832642527512,16614.798400841508,1,1,,,0.0,0.0
2026-01-12,15834.513398142746,16524.587715111527,1,1,,,0.0,0.0
2026-01-13,15784.537629099777,16472.358940087113,1,1,,,0.0,0.0
2026-01-14,15843.599732371262,16534.08367916182,1,1,,,0.0,0.0
2026-01-15,15884.48730561345,16576.814544640336,1,1,,,0.0,0.0
2026-01-16,15979.89288422673,16676.52119442061,1,1,,,0.0,0.0
2026-01-19,16052.58169648259,16752.486961327348,1,1,,,0.0,0.0
2026-01-20,16193.41894623845,16899.673431359086,1,1,,,0.0,0.0
2026-01-21,16466.00338837712,17184.54651638106,1,1,,,0.0,0.0
2026-01-22,16965.746186228684,17706.818702660355,1,1,,,0.0,0.0
2026-01-23,16829.453034373215,17564.381187401566,1,1,,,0.0,0.0
2026-01-26,16865.798371287277,17602.36504360274,1,1,,,0.0,0.0
2026-01-27,16820.3667001447,17554.885223351273,1,1,,,0.0,0.0
2026-01-28,17188.356720896652,17939.46495815352,1,1,,,0.0,0.0
2026-01-29,17079.324433298996,17825.517280541215,1,1,,,0.0,0.0
2026-01-30,16974.8325204572,17716.31466671065,1,1,,,0.0,0.0
2026-02-02,17333.736206980637,18091.3984374626,1,1,,,0.0,0.0
2026-02-03,17420.057312937668,18181.611068688188,1,1,,,0.0,0.0
2026-02-04,16902.14370820134,17640.34889980391,1,1,,,0.0,0.0
2026-02-05,16929.40084931462,17668.834846459184,1,1,,,0.0,0.0
2026-02-06,16938.487183543137,17678.330810509477,1,1,,,0.0,0.0
2026-02-09,16997.547425242356,17740.053604088578,1,1,,,0.0,0.0
2026-02-10,17388.256073923996,18148.376167259965,1,1,,,0.0,0.0
2026-02-11,17719.900757761887,18494.97204586104,1,1,,,0.0,0.0
2026-02-12,17179.270386668137,17929.968994103227,1,1,,,0.0,0.0
2026-02-13,16528.673218699387,17250.041625939164,1,1,,,0.0,0.0
2026-02-18,16367.634186716965,17081.74263759688,1,1,,,0.0,0.0
2026-02-19,16411.554261179856,17127.642715416703,1,1,,,0.0,0.0
2026-02-20,16640.912995310715,17367.34139247969,1,1,,,0.0,0.0
2026-02-23,16670.19366547673,17397.94209285811,1,1,,,0.0,0.0
2026-02-24,17026.43344208806,17770.241859398637,1,1,,,0.0,0.0
2026-02-25,17109.39254853337,17856.940925560746,1,1,,,0.0,0.0
2026-02-26,17158.19366547673,17907.94209285811,1,1,,,0.0,0.0
2026-02-27,16948.35351655095,17688.64193721846,1,1,,,0.0,0.0
2026-03-02,16982.513367625168,17724.341781578813,1,1,,,0.0,0.0
2026-03-03,16811.714112254074,17545.842559777055,1,1,,,0.0,0.0
2026-03-04,16797.072846384934,17530.541236840043,1,1,,,0.0,0.0
2026-03-05,16479.873963328293,17199.042404137406,1,1,,,0.0,0.0
2026-03-06,16714.11373993962,17443.842170677934,1,1,,,0.0,0.0
2026-03-09,16665.31262299626,17392.84100338057,1,1,,,0.0,0.0
2026-03-10,16865.39254853337,17601.940925560746,1,1,,,0.0,0.0
2026-03-11,16938.593293162277,17678.44170375899,1,1,,,0.0,0.0
2026-03-12,16797.072846384934,17530.541236840043,1,1,,,0.0,0.0
2026-03-13,17128.912995310715,17877.34139247969,1,1,,,0.0,0.0
2026-03-16,17045.953888865402,17790.642326317582,1,1,,,0.0,0.0
2026-03-17,17065.47247407048,17811.040847740922,1,1,,,0.0,0.0
2026-03-18,16870.27359101384,17607.042015038285,1,1,,,0.0,0.0
2026-03-19,16938.593293162277,17678.44170375899,1,1,,,0.0,0.0
2026-03-20,16660.43344208806,17387.741859398637,1,1,,,0.0,0.0
2026-03-23,16933.714112254074,17673.342559777055,1,1,,,0.0,0.0
2026-03-24,16840.992920847824,17576.441314659867,1,1,,,0.0,0.0
2026-03-25,17021.554261179856,17765.142715416703,1,1,,,0.0,0.0
2026-03-26,16928.833069773606,17668.241470299516,1,1,,,0.0,0.0
2026-03-27,16811.714112254074,17545.842559777055,1,1,,,0.0,0.0
2026-03-30,16762.912995310715,17494.84139247969,1,1,,,0.0,0.0
2026-03-31,17011.794037791184,17754.94248195723,1,1,,,0.0,0.0
2026-04-01,17153.31262299626,17902.84100338057,1,1,,,0.0,0.0
2026-04-02,17314.35351655095,18071.14193721846,1,1,,,0.0,0.0
2026-04-06,17319.232697459152,18076.241081200395,1,1,,,0.0,0.0
2026-04-07,17333.873963328293,18091.542404137406,1,1,,,0.0,0.0
2026-04-08,17519.31262299626,18285.34100338057,1,1,,,0.0,0.0
2026-04-09,17543.714112254074,18310.842559777055,1,1,,,0.0,0.0
2026-04-10,17792.593293162277,18570.94170375899,1,1,,,0.0,0.0
2026-04-13,17616.912995310715,18387.34139247969,1,1,,,0.0,0.0
2026-04-14,17460.753144236496,18224.14154811934,1,1,,,0.0,0.0
2026-04-15,17128.912995310715,17877.34139247969,1,1,,,0.0,0.0
2026-04-16,17109.39254853337,17856.940925560746,1,1,,,0.0,0.0
2026-04-17,17065.47247407048,17811.040847740922,1,1,,,0.0,0.0
2026-04-20,17241.152771922043,17994.64115902022,1,1,,,0.0,0.0
2026-04-22,16958.11373993962,17698.842170677934,1,1,,,0.0,0.0
2026-04-23,16748.27359101384,17479.542015038285,1,1,,,0.0,0.0
2026-04-24,16758.03381440251,17489.742248497758,1,1,,,0.0,0.0
2026-04-27,16592.11373993962,17316.342170677934,1,1,,,0.0,0.0
2026-04-28,16636.03381440251,17362.242248497758,1,1,,,0.0,0.0
2026-04-29,16494.513367625168,17214.341781578813,1,1,,,0.0,0.0
2026-04-30,16609.12444523155,17280.642326317582,0,1,SELL,,34.05296469497681,0.0
2026-05-04,16609.12444523155,17265.34100338057,0,1,,,0.0,0.0
2026-05-05,16609.12444523155,17571.342170677934,0,1,,,0.0,0.0
2026-05-06,16609.12444523155,17765.142715416703,0,1,,,0.0,0.0
2026-05-07,16288.10318576845,17494.84139247969,1,1,BUY,,34.90744438934326,0.0
2026-05-08,16392.38376438173,17607.042015038285,1,1,,,0.0,0.0
2026-05-11,16288.10318576845,17494.84139247969,1,1,,,0.0,0.0
2026-05-12,16245.44311344179,17448.941314659867,1,1,,,0.0,0.0
2026-05-13,16160.12296878847,17357.14115902022,1,1,,,0.0,0.0
2026-05-14,16373.42333042177,17586.64154811934,1,1,,,0.0,0.0
2026-05-15,16202.78304111513,17403.041236840043,1,1,,,0.0,0.0
2026-05-18,16202.78304111513,17403.041236840043,1,1,,,0.0,0.0
2026-05-19,16103.24347507509,17295.94170375899,1,1,,,0.0,0.0
2026-05-20,16482.44311344179,17703.941314659867,1,1,,,0.0,0.0
2026-05-21,16496.664342995013,17719.24263759688,1,1,,,0.0,0.0
2026-05-22,16368.684126015032,17581.542404137406,1,1,,,0.0,0.0
2026-05-25,16439.78304111513,17658.041236840043,1,1,,,0.0,0.0
2026-05-26,16487.184126015032,17709.042404137406,1,1,,,0.0,0.0
2026-05-27,16553.54383670839,17780.44209285811,1,1,,,0.0,0.0
2026-05-28,16420.824415321673,17637.642715416703,1,1,,,0.0,0.0
2026-05-29,16809.504270668353,18055.842559777055,1,1,,,0.0,0.0
2026-06-01,16634.12296878847,17867.14115902022,1,1,,,0.0,0.0
2026-06-02,16681.524053688372,17918.142326317582,1,1,,,0.0,0.0
2026-06-03,16638.863981361712,17872.242248497758,1,1,,,0.0,0.0
2026-06-05,16804.76325809511,18050.741470299516,1,1,,,0.0,0.0
2026-06-08,17032.28304111513,18295.541236840043,1,1,,,0.0,0.0
2026-06-09,17212.40354740175,18489.341781578813,1,1,,,0.0,0.0
2026-06-10,17392.524053688372,18683.142326317582,1,1,,,0.0,0.0
2026-06-11,17947.10318576845,19279.84139247969,1,1,,,0.0,0.0
2026-06-12,17980.28304111513,19315.541236840043,1,1,,,0.0,0.0
2026-06-15,17937.62296878847,19269.64115902022,1,1,,,0.0,0.0
2026-06-16,18131.96289646181,19478.741081200395,1,1,,,0.0,0.0
2026-06-17,18658.10318576845,20044.84139247969,1,1,,,0.0,0.0
2026-06-18,18724.46289646181,20116.241081200395,1,1,,,0.0,0.0
2026-06-19,18468.504270668353,19840.842559777055,1,1,,,0.0,0.0
2026-06-22,18340.524053688372,19703.142326317582,1,1,,,0.0,0.0
2026-06-23,18169.88376438173,19519.542015038285,1,1,,,0.0,0.0
2026-06-24,18364.22369205507,19728.64193721846,1,1,,,0.0,0.0
2026-06-25,18454.28304111513,19825.541236840043,1,1,,,0.0,0.0
2026-06-26,18596.48267948183,19978.540847740922,1,1,,,0.0,0.0
2026-06-29,18672.324415321673,20060.142715416703,1,1,,,0.0,0.0
2026-06-30,18596.48267948183,19978.540847740922,1,1,,,0.0,0.0
2026-07-01,18103.524053688372,19448.142326317582,1,1,,,0.0,0.0
2026-07-02,18359.48267948183,19723.540847740922,1,1,,,0.0,0.0
2026-07-03,18350.004270668353,19713.342559777055,1,1,,,0.0,0.0
2026-07-06,18378.44311344179,19743.941314659867,1,1,,,0.0,0.0
2026-07-07,18302.60318576845,19662.34139247969,1,1,,,0.0,0.0
2026-07-08,18397.40354740175,19764.341781578813,1,1,,,0.0,0.0
2026-07-09,18648.62296878847,20034.64115902022,1,1,,,0.0,0.0
2026-07-10,19155.80282413515,20580.34100338057,1,1,,,0.0,0.0
2026-07-13,19122.62296878847,20544.64115902022,1,1,,,0.0,0.0
2026-07-14,19174.76325809511,20600.741470299516,1,1,,,0.0,0.0
2026-07-15,19326.44311344179,20763.941314659867,1,1,,,0.0,0.0
2026-07-16,19549.22369205507,21003.64193721846,1,1,,,0.0,0.0
2026-07-17,19520.78304111513,20973.041236840043,1,1,,,0.0,0.0
