date,strategy_equity,benchmark_equity,strategy_position,benchmark_position,strategy_trade,benchmark_trade,strategy_trade_price,benchmark_trade_price,strategy_dividend_cash,benchmark_dividend_cash,strategy_split_ratio,benchmark_split_ratio
2022-08-03,10000.0,9750.020038598072,0,1,,BUY,0.0,29.234609313011166,0.0,0.0,1.0,1.0
2022-08-04,9821.94434427996,9630.669908516895,1,1,BUY,,28.66432461833954,0.0,0.0,0.0,1.0,1.0
2022-08-05,9915.904503581718,9722.740064614307,1,1,,,0.0,0.0,0.0,0.0,1.0,1.0
2022-08-08,10267.384583232597,10067.150142663013,1,1,,,0.0,0.0,0.0,0.0,1.0,1.0
2022-08-09,10371.784981486991,10169.450532906543,1,1,,,0.0,0.0,0.0,0.0,1.0,1.0
2022-08-10,10253.464928386406,10053.510480874073,1,1,,,0.0,0.0,0.0,0.0,1.0,1.0
2022-08-11,10545.784981486991,10339.950532906543,1,1,,,0.0,0.0,0.0,0.0,1.0,1.0
2022-08-12,10646.704636333183,10438.840194695484,1,1,,,0.0,0.0,0.0,0.0,1.0,1.0
2022-08-15,10705.864662883476,10496.810220711719,1,1,,,0.0,0.0,0.0,0.0,1.0,1.0
2022-08-16,10615.384583232597,10408.150142663013,1,1,,,0.0,0.0,0.0,0.0,1.0,1.0
2022-08-17,10521.42442393084,10316.0799865656,1,1,,,0.0,0.0,0.0,0.0,1.0,1.0
2022-08-18,10342.568349433768,10140.821591727954,1,1,,,0.0,0.0,360.54366000000005,353.29134500000004,1.0,1.0
2022-08-19,10283.408322883475,10082.851565711719,1,1,,,0.0,0.0,0.0,0.0,1.0,1.0
2022-08-22,10304.288137031424,10103.311383598071,1,1,,,0.0,0.0,0.0,0.0,1.0,1.0
2022-08-23,10283.408322883475,10082.851565711719,1,1,,,0.0,0.0,0.0,0.0,1.0,1.0
2022-08-24,10283.408322883475,10082.851565711719,1,1,,,0.0,0.0,0.0,0.0,1.0,1.0
2022-08-25,10161.60819013201,9963.501435630542,1,1,,,0.0,0.0,0.0,0.0,1.0,1.0
2022-08-26,10248.60819013201,10048.751435630542,1,1,,,0.0,0.0,0.0,0.0,1.0,1.0
2022-08-29,10185.968083930838,9987.3713315656,1,1,,,0.0,0.0,0.0,0.0,1.0,1.0
2022-08-30,10189.448163581717,9990.781409614307,1,1,,,0.0,0.0,0.0,0.0,1.0,1.0
2022-08-31,10206.848561836112,10007.831799857837,1,1,,,0.0,0.0,0.0,0.0,1.0,1.0
2022-09-01,10384.32864148699,10181.741877906543,1,1,,,0.0,0.0,0.0,0.0,1.0,1.0
2022-09-02,10269.48800427996,10069.211253516894,1,1,,,0.0,0.0,0.0,0.0,1.0,1.0
2022-09-05,10346.048429084647,10144.23166977666,1,1,,,0.0,0.0,0.0,0.0,1.0,1.0
2022-09-06,10387.808057380546,10185.151305549365,1,1,,,0.0,0.0,0.0,0.0,1.0,1.0
2022-09-08,10311.248296333182,10110.131539695483,1,1,,,0.0,0.0,0.0,0.0,1.0,1.0
2022-09-09,10304.288137031424,10103.311383598071,1,1,,,0.0,0.0,0.0,0.0,1.0,1.0
2022-09-12,10179.008588386405,9980.551825874072,1,1,,,0.0,0.0,0.0,0.0,1.0,1.0
2022-09-13,10238.168614936698,10038.521851890308,1,1,,,0.0,0.0,0.0,0.0,1.0,1.0
2022-09-14,10151.168614936698,9953.271851890308,1,1,,,0.0,0.0,0.0,0.0,1.0,1.0
2022-09-15,10224.248296333182,10024.881539695483,1,1,,,0.0,0.0,0.0,0.0,1.0,1.0
2022-09-16,10620.968083930838,10413.6213315656,1,1,,,0.0,0.0,0.0,0.0,1.0,1.0
2022-09-19,10739.288137031424,10529.561383598071,1,1,,,0.0,0.0,0.0,0.0,1.0,1.0
2022-09-20,10881.968083930838,10669.3713315656,1,1,,,0.0,0.0,0.0,0.0,1.0,1.0
2022-09-21,10833.248296333182,10621.631539695483,1,1,,,0.0,0.0,0.0,0.0,1.0,1.0
2022-09-22,10680.128110481131,10471.591357581836,1,1,,,0.0,0.0,0.0,0.0,1.0,1.0
2022-09-23,10669.688535285819,10461.361773841601,1,1,,,0.0,0.0,0.0,0.0,1.0,1.0
2022-09-26,10446.968083930838,10243.1213315656,1,1,,,0.0,0.0,0.0,0.0,1.0,1.0
2022-09-27,10325.168614936698,10123.771851890308,1,1,,,0.0,0.0,0.0,0.0,1.0,1.0
2022-09-28,9897.128110481131,9704.341357581836,1,1,,,0.0,0.0,0.0,0.0,1.0,1.0
2022-09-29,9710.15731752742,9421.311383598071,0,1,SELL,,26.9065400762558,0.0,0.0,0.0,1.0,1.0
2022-09-30,9710.15731752742,9424.721461646777,0,1,,,0.0,0.0,0.0,0.0,1.0,1.0
2022-10-03,9710.15731752742,9694.111773841601,0,1,,,0.0,0.0,0.0,0.0,1.0,1.0
2022-10-04,9710.15731752742,9523.611773841601,0,1,,,0.0,0.0,0.0,0.0,1.0,1.0
2022-10-05,9710.15731752742,9765.721461646777,0,1,,,0.0,0.0,0.0,0.0,1.0,1.0
2022-10-06,9710.15731752742,9837.331799857837,0,1,,,0.0,0.0,0.0,0.0,1.0,1.0
2022-10-07,9710.15731752742,9966.911513679248,0,1,,,0.0,0.0,0.0,0.0,1.0,1.0
2022-10-10,9817.847487032373,9990.781409614307,1,1,BUY,,27.86392538166046,0.0,0.0,0.0,1.0,1.0
2022-10-11,9543.71783119436,9721.391747825366,1,1,,,0.0,0.0,0.0,0.0,1.0,1.0
2022-10-13,9797.027672350367,9970.321591727954,1,1,,,0.0,0.0,0.0,0.0,1.0,1.0
2022-10-14,9564.537645876368,9741.851565711719,1,1,,,0.0,0.0,0.0,0.0,1.0,1.0
2022-10-17,9751.917963564356,9925.991877906543,1,1,,,0.0,0.0,0.0,0.0,1.0,1.0
2022-10-18,10019.107460558374,10188.561383598071,1,1,,,0.0,0.0,0.0,0.0,1.0,1.0
2022-10-19,10081.56756645437,10249.941487663013,1,1,,,0.0,0.0,0.0,0.0,1.0,1.0
2022-10-20,10230.777672350367,10396.571591727954,1,1,,,0.0,0.0,0.0,0.0,1.0,1.0
2022-10-21,10140.55759292837,10307.911513679248,1,1,,,0.0,0.0,0.0,0.0,1.0,1.0
2022-10-24,9977.46783119436,10147.641747825366,1,1,,,0.0,0.0,0.0,0.0,1.0,1.0
2022-10-25,9821.31756645437,9994.191487663013,1,1,,,0.0,0.0,0.0,0.0,1.0,1.0
2022-10-26,9751.917963564356,9925.991877906543,1,1,,,0.0,0.0,0.0,0.0,1.0,1.0
2022-10-27,10147.497751772364,10314.73166977666,1,1,,,0.0,0.0,0.0,0.0,1.0,1.0
2022-10-28,10196.077539980372,10362.471461646777,1,1,,,0.0,0.0,0.0,0.0,1.0,1.0
2022-10-31,10324.46783119436,10488.641747825366,1,1,,,0.0,0.0,0.0,0.0,1.0,1.0
2022-11-01,10327.937910616358,10492.051825874072,1,1,,,0.0,0.0,0.0,0.0,1.0,1.0
2022-11-03,10289.767698824366,10454.54161774419,1,1,,,0.0,0.0,0.0,0.0,1.0,1.0
2022-11-04,10355.697884142359,10519.331799857837,1,1,,,0.0,0.0,0.0,0.0,1.0,1.0
2022-11-07,10463.267698824366,10625.04161774419,1,1,,,0.0,0.0,0.0,0.0,1.0,1.0
2022-11-08,10556.95785766836,10717.111773841601,1,1,,,0.0,0.0,0.0,0.0,1.0,1.0
2022-11-09,10865.787645876368,11020.601565711719,1,1,,,0.0,0.0,0.0,0.0,1.0,1.0
2022-11-10,10414.687910616358,10577.301825874072,1,1,,,0.0,0.0,0.0,0.0,1.0,1.0
2022-11-11,10563.897354662378,10723.93127953313,1,1,,,0.0,0.0,0.0,0.0,1.0,1.0
2022-11-14,10775.56756645437,10931.941487663013,1,1,,,0.0,0.0,0.0,0.0,1.0,1.0
2022-11-16,10445.917963564356,10607.991877906543,1,1,,,0.0,0.0,0.0,0.0,1.0,1.0
2022-11-17,10411.21783119436,10573.891747825366,1,1,,,0.0,0.0,0.0,0.0,1.0,1.0
2022-11-18,10487.55759292837,10648.911513679248,1,1,,,0.0,0.0,0.0,0.0,1.0,1.0
2022-11-21,10591.65732818838,10751.211253516894,1,1,,,0.0,0.0,0.0,0.0,1.0,1.0
2022-11-22,10525.727804720362,10686.42172180913,1,1,,,0.0,0.0,0.0,0.0,1.0,1.0
2022-11-23,10779.037645876368,10935.351565711719,1,1,,,0.0,0.0,0.0,0.0,1.0,1.0
2022-11-24,11025.40732818838,11177.461253516894,1,1,,,0.0,0.0,0.0,0.0,1.0,1.0
2022-11-25,10674.937910616358,10833.051825874072,1,1,,,0.0,0.0,0.0,0.0,1.0,1.0
2022-11-28,10622.887381136377,10781.901305549365,1,1,,,0.0,0.0,0.0,0.0,1.0,1.0
2022-11-29,10740.867434084375,10897.841357581836,1,1,,,0.0,0.0,0.0,0.0,1.0,1.0
2022-11-30,10890.077539980372,11044.471461646777,1,1,,,0.0,0.0,0.0,0.0,1.0,1.0
2022-12-01,11143.387381136377,11293.401305549365,1,1,,,0.0,0.0,0.0,0.0,1.0,1.0
2022-12-02,11320.35812240835,11467.312034003955,1,1,,,0.0,0.0,0.0,0.0,1.0,1.0
2022-12-05,11067.047619402369,11218.381539695483,1,1,,,0.0,0.0,0.0,0.0,1.0,1.0
2022-12-06,11132.977804720362,11283.17172180913,1,1,,,0.0,0.0,0.0,0.0,1.0,1.0
2022-12-07,11008.05759292837,11160.411513679248,1,1,,,0.0,0.0,0.0,0.0,1.0,1.0
2022-12-08,10942.127407610376,11095.6213315656,1,1,,,0.0,0.0,0.0,0.0,1.0,1.0
2022-12-09,11028.877407610376,11180.8713315656,1,1,,,0.0,0.0,0.0,0.0,1.0,1.0
2022-12-12,10865.787645876368,11020.601565711719,1,1,,,0.0,0.0,0.0,0.0,1.0,1.0
2022-12-13,10782.507725298365,10938.761643760425,1,1,,,0.0,0.0,0.0,0.0,1.0,1.0
2022-12-14,10956.007725298365,11109.261643760425,1,1,,,0.0,0.0,0.0,0.0,1.0,1.0
2022-12-15,11198.90732818838,11347.961253516894,1,1,,,0.0,0.0,0.0,0.0,1.0,1.0
2022-12-16,11240.548281252344,11388.882190101367,1,1,,,0.0,0.0,0.0,0.0,1.0,1.0
2022-12-19,11247.487116396387,11395.701045387012,1,1,,,0.0,0.0,0.0,0.0,1.0,1.0
2022-12-20,11355.05759292837,11501.411513679248,1,1,,,0.0,0.0,0.0,0.0,1.0,1.0
2022-12-21,11632.65732818838,11774.211253516894,1,1,,,0.0,0.0,0.0,0.0,1.0,1.0
2022-12-22,11816.568228304346,11954.942138068896,1,1,,,0.0,0.0,0.0,0.0,1.0,1.0
2022-12-23,11677.767698824366,11818.54161774419,1,1,,,0.0,0.0,0.0,0.0,1.0,1.0
2022-12-26,11559.787645876368,11702.601565711719,1,1,,,0.0,0.0,0.0,0.0,1.0,1.0
2022-12-27,11542.437910616358,11685.551825874072,1,1,,,0.0,0.0,0.0,0.0,1.0,1.0
2022-12-28,11691.648016512354,11832.181929939014,1,1,,,0.0,0.0,0.0,0.0,1.0,1.0
2022-12-29,11719.40732818838,11859.461253516894,1,1,,,0.0,0.0,0.0,0.0,1.0,1.0
2023-01-02,11608.367434084375,11750.341357581836,1,1,,,0.0,0.0,0.0,0.0,1.0,1.0
2023-01-03,11247.487116396387,11395.701045387012,1,1,,,0.0,0.0,0.0,0.0,1.0,1.0
2023-01-04,11303.007063448389,11450.260993354541,1,1,,,0.0,0.0,0.0,0.0,1.0,1.0
2023-01-05,11327.298281252344,11474.132190101367,1,1,,,0.0,0.0,0.0,0.0,1.0,1.0
2023-01-06,11656.947222292383,11798.081149451953,1,1,,,0.0,0.0,0.0,0.0,1.0,1.0
2023-01-09,11712.467169344385,11852.641097419482,1,1,,,0.0,0.0,0.0,0.0,1.0,1.0
2023-01-10,11889.437910616358,12026.551825874072,1,1,,,0.0,0.0,0.0,0.0,1.0,1.0
2023-01-11,11958.838175356348,12094.752086036426,1,1,,,0.0,0.0,0.0,0.0,1.0,1.0
2023-01-12,11920.667963564356,12057.241877906543,1,1,,,0.0,0.0,0.0,0.0,1.0,1.0
2023-01-13,11889.437910616358,12026.551825874072,1,1,,,0.0,0.0,0.0,0.0,1.0,1.0
2023-01-16,11778.398016512354,11917.431929939014,1,1,,,0.0,0.0,0.0,0.0,1.0,1.0
2023-01-17,11951.898016512354,12087.931929939014,1,1,,,0.0,0.0,0.0,0.0,1.0,1.0
2023-01-18,12049.05759292837,12183.411513679248,1,1,,,0.0,0.0,0.0,0.0,1.0,1.0
2023-01-19,12180.917963564356,12312.991877906543,1,1,,,0.0,0.0,0.0,0.0,1.0,1.0
2023-01-20,12180.917963564356,12312.991877906543,1,1,,,0.0,0.0,0.0,0.0,1.0,1.0
2023-01-23,12278.077539980372,12408.471461646777,1,1,,,0.0,0.0,0.0,0.0,1.0,1.0
2023-01-24,12409.937910616358,12538.051825874072,1,1,,,0.0,0.0,0.0,0.0,1.0,1.0
2023-01-25,12923.497751772364,13042.73166977666,1,1,,,0.0,0.0,0.0,0.0,1.0,1.0
2023-01-26,12881.85812240835,13001.812034003955,1,1,,,0.0,0.0,0.0,0.0,1.0,1.0
2023-01-27,12954.727804720362,13073.42172180913,1,1,,,0.0,0.0,0.0,0.0,1.0,1.0
2023-01-30,13173.338175356348,13288.252086036426,1,1,,,0.0,0.0,0.0,0.0,1.0,1.0
2023-01-31,13131.697222292383,13247.331149451953,1,1,,,0.0,0.0,0.0,0.0,1.0,1.0
2023-02-01,12732.648016512354,12855.181929939014,1,1,,,0.0,0.0,0.0,0.0,1.0,1.0
2023-02-02,12687.537645876368,12810.851565711719,1,1,,,0.0,0.0,0.0,0.0,1.0,1.0
2023-02-03,12652.838175356348,12776.752086036426,1,1,,,0.0,0.0,0.0,0.0,1.0,1.0
2023-02-06,12715.298281252344,12838.132190101367,1,1,,,0.0,0.0,0.0,0.0,1.0,1.0
2023-02-07,12798.577539980372,12919.971461646777,1,1,,,0.0,0.0,0.0,0.0,1.0,1.0
2023-02-08,12878.387381136377,12998.401305549365,1,1,,,0.0,0.0,0.0,0.0,1.0,1.0
2023-02-09,12205.20785766836,12336.861773841601,1,1,,,0.0,0.0,0.0,0.0,1.0,1.0
2023-02-10,12496.687910616358,12623.301825874072,1,1,,,0.0,0.0,0.0,0.0,1.0,1.0
2023-02-13,12635.487116396387,12759.701045387012,1,1,,,0.0,0.0,0.0,0.0,1.0,1.0
2023-02-14,12711.827539980372,12834.721461646777,1,1,,,0.0,0.0,0.0,0.0,1.0,1.0
2023-02-15,12798.083388344385,12919.485854419483,1,1,,,0.0,0.0,651.866219,640.594757,1.0,1.0
2023-02-16,12947.29349424038,13066.115958484424,1,1,,,0.0,0.0,0.0,0.0,1.0,1.0
2023-02-17,13002.813441292383,13120.675906451954,1,1,,,0.0,0.0,0.0,0.0,1.0,1.0
2023-02-22,12943.82407666836,13062.706530841602,1,1,,,0.0,0.0,0.0,0.0,1.0,1.0
2023-02-23,12874.42381192837,12994.506270679249,1,1,,,0.0,0.0,0.0,0.0,1.0,1.0
2023-02-24,12506.603335396387,12633.045802387012,1,1,,,0.0,0.0,0.0,0.0,1.0,1.0
2023-02-27,12572.534182564355,12697.836634906544,1,1,,,0.0,0.0,0.0,0.0,1.0,1.0
2023-02-28,12544.773547188379,12670.556010516895,1,1,,,0.0,0.0,0.0,0.0,1.0,1.0
2023-03-01,12475.373282448389,12602.355750354542,1,1,,,0.0,0.0,0.0,0.0,1.0,1.0
2023-03-02,12669.693758980371,12793.316218646778,1,1,,,0.0,0.0,0.0,0.0,1.0,1.0
2023-03-03,12496.193758980371,12622.816218646778,1,1,,,0.0,0.0,0.0,0.0,1.0,1.0
2023-03-06,12777.264235512353,12899.026686939014,1,1,,,0.0,0.0,0.0,0.0,1.0,1.0
2023-03-07,12773.79349424038,12895.615958484424,1,1,,,0.0,0.0,0.0,0.0,1.0,1.0
2023-03-08,12770.32407666836,12892.206530841602,1,1,,,0.0,0.0,0.0,0.0,1.0,1.0
2023-03-09,12673.164500252344,12796.726947101368,1,1,,,0.0,0.0,0.0,0.0,1.0,1.0
2023-03-10,12475.373282448389,12602.355750354542,1,1,,,0.0,0.0,0.0,0.0,1.0,1.0
2023-03-13,12208.184447304346,12339.786895068897,1,1,,,0.0,0.0,0.0,0.0,1.0,1.0
2023-03-14,12211.653864876367,12343.19632271172,1,1,,,0.0,0.0,0.0,0.0,1.0,1.0
2023-03-15,12072.853335396387,12206.795802387012,1,1,,,0.0,0.0,0.0,0.0,1.0,1.0
2023-03-16,12124.903864876367,12257.94632271172,1,1,,,0.0,0.0,0.0,0.0,1.0,1.0
2023-03-17,11923.64322950039,12060.165698322071,1,1,,,0.0,0.0,0.0,0.0,1.0,1.0
2023-03-20,11895.530130828194,12002.19632271172,0,1,SELL,,32.40378816986084,0.0,0.0,0.0,1.0,1.0
2023-03-21,11895.530130828194,12022.656791003956,0,1,,,0.0,0.0,0.0,0.0,1.0,1.0
2023-03-22,11895.530130828194,12053.346843036426,0,1,,,0.0,0.0,0.0,0.0,1.0,1.0
2023-03-23,11895.530130828194,12138.596843036426,0,1,,,0.0,0.0,0.0,0.0,1.0,1.0
2023-03-24,11895.530130828194,12281.816218646778,0,1,,,0.0,0.0,0.0,0.0,1.0,1.0
2023-03-27,11895.530130828194,12186.336634906544,0,1,,,0.0,0.0,0.0,0.0,1.0,1.0
2023-03-28,11895.530130828194,12380.706530841602,0,1,,,0.0,0.0,0.0,0.0,1.0,1.0
2023-03-29,11895.530130828194,12196.566218646778,0,1,,,0.0,0.0,0.0,0.0,1.0,1.0
2023-03-30,11895.530130828194,12111.316218646778,0,1,,,0.0,0.0,0.0,0.0,1.0,1.0
2023-03-31,11895.530130828194,12090.855750354542,0,1,,,0.0,0.0,0.0,0.0,1.0,1.0
2023-04-03,11895.530130828194,11988.556010516895,0,1,,,0.0,0.0,0.0,0.0,1.0,1.0
2023-04-04,11895.530130828194,12305.686114581837,0,1,,,0.0,0.0,0.0,0.0,1.0,1.0
2023-04-05,11895.530130828194,12138.596843036426,0,1,,,0.0,0.0,0.0,0.0,1.0,1.0
2023-04-06,11895.530130828194,12615.996062549366,0,1,,,0.0,0.0,0.0,0.0,1.0,1.0
2023-04-10,12060.77525999749,12806.956530841602,1,1,BUY,,34.067024236679075,0.0,0.0,0.0,1.0,1.0
2023-04-11,12186.055472399834,12929.716738971485,1,1,,,0.0,0.0,0.0,0.0,1.0,1.0
2023-04-12,12325.254675891045,13066.115958484424,1,1,,,0.0,0.0,0.0,0.0,1.0,1.0
2023-04-13,12172.135153796318,12916.07642677666,1,1,,,0.0,0.0,0.0,0.0,1.0,1.0
2023-04-14,12161.695578601006,12905.846843036426,1,1,,,0.0,0.0,0.0,0.0,1.0,1.0
2023-04-17,12057.294516589287,12803.545802387012,1,1,,,0.0,0.0,0.0,0.0,1.0,1.0
2023-04-18,12060.77525999749,12806.956530841602,1,1,,,0.0,0.0,0.0,0.0,1.0,1.0
2023-04-19,12050.335684802178,12796.726947101368,1,1,,,0.0,0.0,0.0,0.0,1.0,1.0
2023-04-20,12112.974463488701,12858.105750354542,1,1,,,0.0,0.0,0.0,0.0,1.0,1.0
2023-04-24,12039.894782092217,12786.496062549366,1,1,,,0.0,0.0,0.0,0.0,1.0,1.0
2023-04-25,12109.495047595146,12854.69632271172,1,1,,,0.0,0.0,0.0,0.0,1.0,1.0
2023-04-26,12116.455206896904,12861.516478809132,1,1,,,0.0,0.0,0.0,0.0,1.0,1.0
2023-04-27,11973.77525999749,12721.706530841602,1,1,,,0.0,0.0,0.0,0.0,1.0,1.0
2023-04-28,11956.37552550042,12704.656791003956,1,1,,,0.0,0.0,0.0,0.0,1.0,1.0
2023-05-02,11925.055472399834,12673.966738971485,1,1,,,0.0,0.0,0.0,0.0,1.0,1.0
2023-05-03,11681.455206896904,12435.266478809132,1,1,,,0.0,0.0,0.0,0.0,1.0,1.0
2023-05-04,11542.254675891045,12298.865958484424,1,1,,,0.0,0.0,0.0,0.0,1.0,1.0
2023-05-05,11667.534888293389,12421.626166614307,1,1,,,0.0,0.0,0.0,0.0,1.0,1.0
2023-05-08,11650.135153796318,12404.57642677666,1,1,,,0.0,0.0,0.0,0.0,1.0,1.0
2023-05-09,11747.57472899163,12500.056010516895,1,1,,,0.0,0.0,0.0,0.0,1.0,1.0
2023-05-10,11778.894782092217,12530.746062549366,1,1,,,0.0,0.0,0.0,0.0,1.0,1.0
2023-05-11,11838.055472399834,12588.716738971485,1,1,,,0.0,0.0,0.0,0.0,1.0,1.0
2023-05-12,11904.17499449456,12653.506270679249,1,1,,,0.0,0.0,0.0,0.0,1.0,1.0
2023-05-15,11201.214835192803,11964.686114581837,1,1,,,0.0,0.0,0.0,0.0,1.0,1.0
2023-05-16,11204.506004731484,11968.096843036426,0,1,SELL,,32.21388454246521,0.0,0.0,0.0,1.0,1.0
2023-05-17,11204.506004731484,11906.716088565601,0,1,,,0.0,0.0,0.0,0.0,1.0,1.0
2023-05-18,11204.506004731484,11685.066218646778,0,1,,,0.0,0.0,0.0,0.0,1.0,1.0
2023-05-19,11204.506004731484,11541.846192630543,0,1,,,0.0,0.0,0.0,0.0,1.0,1.0
2023-05-22,11204.506004731484,11552.07642677666,0,1,,,0.0,0.0,0.0,0.0,1.0,1.0
2023-05-23,11204.506004731484,11497.516478809132,0,1,,,0.0,0.0,0.0,0.0,1.0,1.0
2023-05-24,11204.506004731484,11702.116608890308,0,1,,,0.0,0.0,0.0,0.0,1.0,1.0
2023-05-25,11204.506004731484,11852.156140598072,0,1,,,0.0,0.0,0.0,0.0,1.0,1.0
2023-05-26,11204.506004731484,11882.846192630543,0,1,,,0.0,0.0,0.0,0.0,1.0,1.0
2023-05-29,11204.506004731484,11947.63637474419,0,1,,,0.0,0.0,0.0,0.0,1.0,1.0
2023-05-30,11204.506004731484,11811.236504825367,0,1,,,0.0,0.0,0.0,0.0,1.0,1.0
2023-05-31,11204.506004731484,11552.07642677666,0,1,,,0.0,0.0,0.0,0.0,1.0,1.0
2023-06-01,11204.506004731484,11412.266478809132,0,1,,,0.0,0.0,0.0,0.0,1.0,1.0
2023-06-02,11204.506004731484,11572.536244663013,0,1,,,0.0,0.0,0.0,0.0,1.0,1.0
2023-06-05,11204.506004731484,11589.586634906544,0,1,,,0.0,0.0,0.0,0.0,1.0,1.0
2023-06-06,11204.506004731484,11572.536244663013,0,1,,,0.0,0.0,0.0,0.0,1.0,1.0
2023-06-07,11204.506004731484,11572.536244663013,0,1,,,0.0,0.0,0.0,0.0,1.0,1.0
2023-06-09,11204.506004731484,11599.816218646778,0,1,,,0.0,0.0,0.0,0.0,1.0,1.0
2023-06-12,11204.506004731484,11517.976296695484,0,1,,,0.0,0.0,0.0,0.0,1.0,1.0
2023-06-13,11204.506004731484,11442.956530841602,0,1,,,0.0,0.0,0.0,0.0,1.0,1.0
2023-06-14,11204.506004731484,11415.676556857838,0,1,,,0.0,0.0,0.0,0.0,1.0,1.0
2023-06-15,11204.506004731484,11432.726296695484,0,1,,,0.0,0.0,0.0,0.0,1.0,1.0
2023-06-16,11204.506004731484,11388.396582874073,0,1,,,0.0,0.0,0.0,0.0,1.0,1.0
2023-06-19,11204.506004731484,11320.19632271172,0,1,,,0.0,0.0,0.0,0.0,1.0,1.0
2023-06-20,11204.506004731484,11313.376166614307,0,1,,,0.0,0.0,0.0,0.0,1.0,1.0
2023-06-21,11204.506004731484,11350.88637474419,0,1,,,0.0,0.0,0.0,0.0,1.0,1.0
2023-06-22,11204.506004731484,11367.936114581837,0,1,,,0.0,0.0,0.0,0.0,1.0,1.0
2023-06-23,11204.506004731484,11436.13637474419,0,1,,,0.0,0.0,0.0,0.0,1.0,1.0
2023-06-26,11204.506004731484,11132.646582874073,0,1,,,0.0,0.0,0.0,0.0,1.0,1.0
2023-06-27,11204.506004731484,11272.456530841602,0,1,,,0.0,0.0,0.0,0.0,1.0,1.0
2023-06-28,11204.506004731484,11419.086634906544,0,1,,,0.0,0.0,0.0,0.0,1.0,1.0
2023-06-29,11204.506004731484,11500.926556857838,0,1,,,0.0,0.0,0.0,0.0,1.0,1.0
2023-06-30,11147.615614304525,11497.516478809132,1,1,BUY,,30.865425381660458,0.0,0.0,0.0,1.0,1.0
2023-07-03,11415.4955314493,11749.856400760425,1,1,,,0.0,0.0,0.0,0.0,1.0,1.0
2023-07-04,11458.935144791585,11790.77603653313,1,1,,,0.0,0.0,0.0,0.0,1.0,1.0
2023-07-05,11415.4955314493,11749.856400760425,1,1,,,0.0,0.0,0.0,0.0,1.0,1.0
2023-07-06,11324.9955314493,11664.606400760425,1,1,,,0.0,0.0,0.0,0.0,1.0,1.0
2023-07-07,11346.715338120443,11685.066218646778,1,1,,,0.0,0.0,0.0,0.0,1.0,1.0
2023-07-10,11296.035559067708,11637.32642677666,1,1,,,0.0,0.0,0.0,0.0,1.0,1.0
2023-07-11,11267.075586686116,11610.046452792896,1,1,,,0.0,0.0,0.0,0.0,1.0,1.0
2023-07-12,11136.75536573885,11487.286244663013,1,1,,,0.0,0.0,0.0,0.0,1.0,1.0
2023-07-13,11107.795393357259,11460.006270679249,1,1,,,0.0,0.0,0.0,0.0,1.0,1.0
2023-07-14,11028.155641922933,11384.986504825367,1,1,,,0.0,0.0,0.0,0.0,1.0,1.0
2023-07-17,11042.635282883626,11398.626166614307,1,1,,,0.0,0.0,0.0,0.0,1.0,1.0
2023-07-18,10915.935144791585,11279.27603653313,1,1,,,0.0,0.0,0.0,0.0,1.0,1.0
2023-07-19,10934.035559067708,11296.32642677666,1,1,,,0.0,0.0,0.0,0.0,1.0,1.0
2023-07-20,11125.895117173177,11477.056010516895,1,1,,,0.0,0.0,0.0,0.0,1.0,1.0
2023-07-21,11248.975172409993,11592.996062549366,1,1,,,0.0,0.0,0.0,0.0,1.0,1.0
2023-07-24,11401.015200028402,11736.216088565601,1,1,,,0.0,0.0,0.0,0.0,1.0,1.0
2023-07-25,11299.655641922933,11640.736504825367,1,1,,,0.0,0.0,0.0,0.0,1.0,1.0
2023-07-26,11375.675310502034,11712.346192630543,1,1,,,0.0,0.0,0.0,0.0,1.0,1.0
2023-07-27,11183.815752396566,11531.616608890308,1,1,,,0.0,0.0,0.0,0.0,1.0,1.0
2023-07-28,11328.615614304525,11668.016478809132,1,1,,,0.0,0.0,0.0,0.0,1.0,1.0
2023-07-31,11274.315752396566,11616.866608890308,1,1,,,0.0,0.0,0.0,0.0,1.0,1.0
2023-08-01,11324.9955314493,11664.606400760425,1,1,,,0.0,0.0,0.0,0.0,1.0,1.0
2023-08-02,11332.23569715975,11671.426556857838,1,1,,,0.0,0.0,0.0,0.0,1.0,1.0
2023-08-03,11346.715338120443,11685.066218646778,1,1,,,0.0,0.0,0.0,0.0,1.0,1.0
2023-08-04,11415.4955314493,11749.856400760425,1,1,,,0.0,0.0,0.0,0.0,1.0,1.0
2023-08-07,11686.994840989095,12005.605750354542,1,1,,,0.0,0.0,0.0,0.0,1.0,1.0
2023-08-08,11610.975172409993,11933.996062549366,1,1,,,0.0,0.0,0.0,0.0,1.0,1.0
2023-08-09,11650.795393357259,11971.506270679249,1,1,,,0.0,0.0,0.0,0.0,1.0,1.0
2023-08-10,11683.375448594075,12002.19632271172,1,1,,,0.0,0.0,0.0,0.0,1.0,1.0
2023-08-11,11763.015890488607,12077.216738971485,1,1,,,0.0,0.0,0.0,0.0,1.0,1.0
2023-08-14,11871.615614304525,12179.516478809132,1,1,,,0.0,0.0,0.0,0.0,1.0,1.0
2023-08-15,11791.975172409993,12104.496062549366,1,1,,,0.0,0.0,0.0,0.0,1.0,1.0
2023-08-16,11788.355780014974,12101.086634906544,1,1,,,0.0,0.0,0.0,0.0,1.0,1.0
2023-08-17,11327.759987357258,11667.210487679247,1,1,,,0.0,0.0,581.964594,548.204217,1.0,1.0
2023-08-18,11407.399738791584,11742.23025353313,1,1,,,0.0,0.0,0.0,0.0,1.0,1.0
2023-08-21,11411.019821646809,11745.640331581835,1,1,,,0.0,0.0,0.0,0.0,1.0,1.0
2023-08-22,11436.359711173176,11769.510227516894,1,1,,,0.0,0.0,0.0,0.0,1.0,1.0
2023-08-23,11505.139904502033,11834.300409630541,1,1,,,0.0,0.0,0.0,0.0,1.0,1.0
2023-08-24,11573.92009783089,11899.090591744189,1,1,,,0.0,0.0,0.0,0.0,1.0,1.0
2023-08-25,11573.92009783089,11899.090591744189,1,1,,,0.0,0.0,0.0,0.0,1.0,1.0
2023-08-28,11725.960125449299,12042.310617760424,1,1,,,0.0,0.0,0.0,0.0,1.0,1.0
2023-08-29,11830.939766409992,12141.200279549364,1,1,,,0.0,0.0,0.0,0.0,1.0,1.0
2023-08-30,11736.820374014973,12052.540851906542,1,1,,,0.0,0.0,0.0,0.0,1.0,1.0
2023-08-31,11588.399738791584,11912.73025353313,1,1,,,0.0,0.0,0.0,0.0,1.0,1.0
2023-09-01,11823.700291159748,12134.380773857836,1,1,,,0.0,0.0,0.0,0.0,1.0,1.0
2023-09-04,11950.399738791584,12253.73025353313,1,1,,,0.0,0.0,0.0,0.0,1.0,1.0
2023-09-05,11928.679932120442,12233.270435646777,1,1,,,0.0,0.0,0.0,0.0,1.0,1.0
2023-09-06,11845.42009783089,12154.840591744189,1,1,,,0.0,0.0,0.0,0.0,1.0,1.0
2023-09-08,11852.66026354134,12161.6607478416,1,1,,,0.0,0.0,0.0,0.0,1.0,1.0
2023-09-11,12098.820374014973,12393.540851906542,1,1,,,0.0,0.0,0.0,0.0,1.0,1.0
2023-09-12,12156.740318778157,12448.100799874072,1,1,,,0.0,0.0,0.0,0.0,1.0,1.0
2023-09-13,12145.880070212483,12437.870565727953,1,1,,,0.0,0.0,0.0,0.0,1.0,1.0
2023-09-14,12066.240318778157,12362.850799874072,1,1,,,0.0,0.0,0.0,0.0,1.0,1.0
2023-09-15,12044.519821646809,12342.390331581835,1,1,,,0.0,0.0,0.0,0.0,1.0,1.0
2023-09-18,12116.92009783089,12410.590591744189,1,1,,,0.0,0.0,0.0,0.0,1.0,1.0
2023-09-19,12059.000153067707,12356.03064377666,1,1,,,0.0,0.0,0.0,0.0,1.0,1.0
2023-09-20,12247.240318778157,12533.350799874072,1,1,,,0.0,0.0,0.0,0.0,1.0,1.0
2023-09-21,12087.960125449299,12383.310617760424,1,1,,,0.0,0.0,0.0,0.0,1.0,1.0
2023-09-22,12080.71995973885,12376.490461663012,1,1,,,0.0,0.0,0.0,0.0,1.0,1.0
2023-09-25,12185.699600699543,12475.380123451952,1,1,,,0.0,0.0,0.0,0.0,1.0,1.0
2023-09-26,12113.300014975666,12407.180513695483,1,1,,,0.0,0.0,0.0,0.0,1.0,1.0
2023-09-27,11982.9797940284,12284.4203055656,1,1,,,0.0,0.0,0.0,0.0,1.0,1.0
2023-09-28,12066.240318778157,12362.850799874072,1,1,,,0.0,0.0,0.0,0.0,1.0,1.0
2023-09-29,11888.859711173176,12195.760227516894,1,1,,,0.0,0.0,0.0,0.0,1.0,1.0
2023-10-02,12153.120235922932,12444.690721825365,1,1,,,0.0,0.0,0.0,0.0,1.0,1.0
2023-10-03,12182.080208304524,12471.97069580913,1,1,,,0.0,0.0,0.0,0.0,1.0,1.0
2023-10-04,12247.240318778157,12533.350799874072,1,1,,,0.0,0.0,0.0,0.0,1.0,1.0
2023-10-05,12153.120235922932,12444.690721825365,1,1,,,0.0,0.0,0.0,0.0,1.0,1.0
2023-10-06,12200.179932120442,12489.020435646777,1,1,,,0.0,0.0,0.0,0.0,1.0,1.0
2023-10-09,12131.399738791584,12424.23025353313,1,1,,,0.0,0.0,0.0,0.0,1.0,1.0
2023-10-10,12040.899738791584,12338.98025353313,1,1,,,0.0,0.0,0.0,0.0,1.0,1.0
2023-10-11,12084.340042594074,12379.900539711718,1,1,,,0.0,0.0,0.0,0.0,1.0,1.0
2023-10-13,11921.439766409992,12226.450279549364,1,1,,,0.0,0.0,0.0,0.0,1.0,1.0
2023-10-16,12062.620235922932,12359.440721825365,1,1,,,0.0,0.0,0.0,0.0,1.0,1.0
2023-10-17,12033.66026354134,12332.1607478416,1,1,,,0.0,0.0,0.0,0.0,1.0,1.0
2023-10-18,12135.019821646809,12427.640331581835,1,1,,,0.0,0.0,0.0,0.0,1.0,1.0
2023-10-19,12124.16026354134,12417.4107478416,1,1,,,0.0,0.0,0.0,0.0,1.0,1.0
2023-10-20,11972.120235922932,12274.190721825365,1,1,,,0.0,0.0,0.0,0.0,1.0,1.0
2023-10-23,11943.16026354134,12246.9107478416,1,1,,,0.0,0.0,0.0,0.0,1.0,1.0
2023-10-24,11957.639904502033,12260.550409630541,1,1,,,0.0,0.0,0.0,0.0,1.0,1.0
2023-10-25,11910.580208304524,12216.22069580913,1,1,,,0.0,0.0,0.0,0.0,1.0,1.0
2023-10-26,11932.300014975666,12236.680513695483,1,1,,,0.0,0.0,0.0,0.0,1.0,1.0
2023-10-27,11794.740318778157,12107.100799874072,1,1,,,0.0,0.0,0.0,0.0,1.0,1.0
2023-10-30,11649.939766409992,11970.700279549364,1,1,,,0.0,0.0,0.0,0.0,1.0,1.0
2023-10-31,11725.960125449299,12042.310617760424,1,1,,,0.0,0.0,0.0,0.0,1.0,1.0
2023-11-01,11888.859711173176,12195.760227516894,1,1,,,0.0,0.0,0.0,0.0,1.0,1.0
2023-11-03,11975.740318778157,12277.600799874072,1,1,,,0.0,0.0,0.0,0.0,1.0,1.0
2023-11-06,12091.580208304524,12386.72069580913,1,1,,,0.0,0.0,0.0,0.0,1.0,1.0
2023-11-07,12138.639904502033,12431.050409630541,1,1,,,0.0,0.0,0.0,0.0,1.0,1.0
2023-11-08,12138.639904502033,12431.050409630541,1,1,,,0.0,0.0,0.0,0.0,1.0,1.0
2023-11-09,11921.439766409992,12226.450279549364,1,1,,,0.0,0.0,0.0,0.0,1.0,1.0
2023-11-10,11921.439766409992,12226.450279549364,1,1,,,0.0,0.0,0.0,0.0,1.0,1.0
2023-11-13,11964.880070212483,12267.370565727953,1,1,,,0.0,0.0,0.0,0.0,1.0,1.0
2023-11-14,12048.139904502033,12345.800409630541,1,1,,,0.0,0.0,0.0,0.0,1.0,1.0
2023-11-16,12225.519821646809,12512.890331581835,1,1,,,0.0,0.0,0.0,0.0,1.0,1.0
2023-11-17,12095.200291159748,12390.130773857836,1,1,,,0.0,0.0,0.0,0.0,1.0,1.0
2023-11-20,12167.599876883625,12458.330383614306,1,1,,,0.0,0.0,0.0,0.0,1.0,1.0
2023-11-21,12142.259987357258,12434.460487679247,1,1,,,0.0,0.0,0.0,0.0,1.0,1.0
2023-11-22,12185.699600699543,12475.380123451952,1,1,,,0.0,0.0,0.0,0.0,1.0,1.0
2023-11-23,12211.03949022591,12499.250019387011,1,1,,,0.0,0.0,0.0,0.0,1.0,1.0
2023-11-24,12142.259987357258,12434.460487679247,1,1,,,0.0,0.0,0.0,0.0,1.0,1.0
2023-11-27,12069.859711173176,12366.260227516894,1,1,,,0.0,0.0,0.0,0.0,1.0,1.0
2023-11-28,12106.059849265217,12400.36035759807,1,1,,,0.0,0.0,0.0,0.0,1.0,1.0
2023-11-29,11975.740318778157,12277.600799874072,1,1,,,0.0,0.0,0.0,0.0,1.0,1.0
2023-11-30,11921.439766409992,12226.450279549364,1,1,,,0.0,0.0,0.0,0.0,1.0,1.0
2023-12-01,11776.639904502033,12090.050409630541,1,1,,,0.0,0.0,0.0,0.0,1.0,1.0
2023-12-04,11747.679932120442,12062.770435646777,1,1,,,0.0,0.0,0.0,0.0,1.0,1.0
2023-12-05,11704.240318778157,12021.850799874072,1,1,,,0.0,0.0,0.0,0.0,1.0,1.0
2023-12-06,11697.000153067707,12015.03064377666,1,1,,,0.0,0.0,0.0,0.0,1.0,1.0
2023-12-07,11849.040180686115,12158.250669792895,1,1,,,0.0,0.0,0.0,0.0,1.0,1.0
2023-12-08,11852.66026354134,12161.6607478416,1,1,,,0.0,0.0,0.0,0.0,1.0,1.0
2023-12-11,11878.000153067707,12185.53064377666,1,1,,,0.0,0.0,0.0,0.0,1.0,1.0
2023-12-12,11888.859711173176,12195.760227516894,1,1,,,0.0,0.0,0.0,0.0,1.0,1.0
2023-12-13,11830.939766409992,12141.200279549364,1,1,,,0.0,0.0,0.0,0.0,1.0,1.0
2023-12-14,12044.519821646809,12342.390331581835,1,1,,,0.0,0.0,0.0,0.0,1.0,1.0
2023-12-15,12200.179932120442,12489.020435646777,1,1,,,0.0,0.0,0.0,0.0,1.0,1.0
2023-12-18,12366.699600699543,12645.880123451952,1,1,,,0.0,0.0,0.0,0.0,1.0,1.0
2023-12-19,12670.77965593636,12932.320175484423,1,1,,,0.0,0.0,0.0,0.0,1.0,1.0
2023-12-20,12591.140594962239,12857.301060036425,1,1,,,0.0,0.0,0.0,0.0,1.0,1.0
2023-12-21,12591.140594962239,12857.301060036425,1,1,,,0.0,0.0,0.0,0.0,1.0,1.0
2023-12-22,12667.16026354134,12928.9107478416,1,1,,,0.0,0.0,0.0,0.0,1.0,1.0
2023-12-26,12757.66026354134,13014.1607478416,1,1,,,0.0,0.0,0.0,0.0,1.0,1.0
2023-12-27,12674.40042925179,12935.730903939013,1,1,,,0.0,0.0,0.0,0.0,1.0,1.0
2023-12-28,12772.140594962239,13027.801060036425,1,1,,,0.0,0.0,0.0,0.0,1.0,1.0
2024-01-02,12859.019821646809,13109.640331581835,1,1,,,0.0,0.0,0.0,0.0,1.0,1.0
2024-01-03,12804.720650199055,13058.491112068896,1,1,,,0.0,0.0,0.0,0.0,1.0,1.0
2024-01-04,12891.599876883625,13140.330383614306,1,1,,,0.0,0.0,0.0,0.0,1.0,1.0
2024-01-05,12783.000153067707,13038.03064377666,1,1,,,0.0,0.0,0.0,0.0,1.0,1.0
2024-01-08,12725.080208304524,12983.47069580913,1,1,,,0.0,0.0,0.0,0.0,1.0,1.0
2024-01-09,12681.640594962239,12942.551060036425,1,1,,,0.0,0.0,0.0,0.0,1.0,1.0
2024-01-10,12605.619545462727,12870.940071419482,1,1,,,0.0,0.0,0.0,0.0,1.0,1.0
2024-01-11,12638.199600699543,12901.630123451952,1,1,,,0.0,0.0,0.0,0.0,1.0,1.0
2024-01-12,12659.92009783089,12922.090591744189,1,1,,,0.0,0.0,0.0,0.0,1.0,1.0
2024-01-15,12786.619545462727,13041.440071419482,1,1,,,0.0,0.0,0.0,0.0,1.0,1.0
2024-01-16,12710.599876883625,12969.830383614306,1,1,,,0.0,0.0,0.0,0.0,1.0,1.0
2024-01-17,12866.259987357258,13116.460487679247,1,1,,,0.0,0.0,0.0,0.0,1.0,1.0
2024-01-18,13036.40042925179,13276.730903939013,1,1,,,0.0,0.0,0.0,0.0,1.0,1.0
2024-01-19,13097.939766409992,13334.700279549364,1,1,,,0.0,0.0,0.0,0.0,1.0,1.0
2024-01-22,13126.90042925179,13361.980903939013,1,1,,,0.0,0.0,0.0,0.0,1.0,1.0
2024-01-23,13083.459434989094,13321.05996735454,1,1,,,0.0,0.0,0.0,0.0,1.0,1.0
2024-01-24,12985.720650199055,13228.991112068896,1,1,,,0.0,0.0,0.0,0.0,1.0,1.0
2024-01-25,12804.720650199055,13058.491112068896,1,1,,,0.0,0.0,0.0,0.0,1.0,1.0
2024-01-26,12801.099876883625,13055.080383614306,1,1,,,0.0,0.0,0.0,0.0,1.0,1.0
2024-01-29,12931.42009783089,13177.840591744189,1,1,,,0.0,0.0,0.0,0.0,1.0,1.0
2024-01-30,12837.300705435871,13089.181164101366,1,1,,,0.0,0.0,0.0,0.0,1.0,1.0
2024-01-31,12989.340042594074,13232.400539711718,1,1,,,0.0,0.0,0.0,0.0,1.0,1.0
2024-02-01,13011.060539725422,13252.861008003954,1,1,,,0.0,0.0,0.0,0.0,1.0,1.0
2024-02-02,12931.42009783089,13177.840591744189,1,1,,,0.0,0.0,0.0,0.0,1.0,1.0
2024-02-05,13097.939766409992,13334.700279549364,1,1,,,0.0,0.0,0.0,0.0,1.0,1.0
2024-02-06,13441.840042594074,13658.650539711718,1,1,,,0.0,0.0,0.0,0.0,1.0,1.0
2024-02-07,13564.92009783089,13774.590591744189,1,1,,,0.0,0.0,0.0,0.0,1.0,1.0
2024-02-08,13079.840042594074,13317.650539711718,1,1,,,0.0,0.0,0.0,0.0,1.0,1.0
2024-02-09,12917.406992014974,13164.640400906543,1,1,,,0.0,0.0,456.58661800000004,430.099549,1.0,1.0
2024-02-14,12968.086771067708,13212.38019277666,1,1,,,0.0,0.0,0.0,0.0,1.0,1.0
2024-02-15,12997.046052989095,13239.65951635454,1,1,,,0.0,0.0,0.0,0.0,1.0,1.0
2024-02-16,12870.34660535726,13120.310036679248,1,1,,,0.0,0.0,0.0,0.0,1.0,1.0
2024-02-19,12910.166826304525,13157.82024480913,1,1,,,0.0,0.0,0.0,0.0,1.0,1.0
2024-02-20,13033.246881541341,13273.760296841601,1,1,,,0.0,0.0,0.0,0.0,1.0,1.0
2024-02-21,12957.22721296224,13202.150609036426,1,1,,,0.0,0.0,0.0,0.0,1.0,1.0
2024-02-22,13123.746881541341,13359.010296841601,1,1,,,0.0,0.0,0.0,0.0,1.0,1.0
2024-02-23,13011.526384409994,13253.299828549365,1,1,,,0.0,0.0,0.0,0.0,1.0,1.0
2024-02-26,13018.766550120443,13260.119984646777,1,1,,,0.0,0.0,0.0,0.0,1.0,1.0
2024-02-27,13069.446329173177,13307.859776516894,1,1,,,0.0,0.0,0.0,0.0,1.0,1.0
2024-02-28,13192.526384409994,13423.799828549365,1,1,,,0.0,0.0,0.0,0.0,1.0,1.0
2024-02-29,13116.506715830892,13352.19014074419,1,1,,,0.0,0.0,0.0,0.0,1.0,1.0
2024-03-01,12964.465997752279,13208.96946432207,1,1,,,0.0,0.0,0.0,0.0,1.0,1.0
2024-03-04,12960.84660535726,13205.560036679248,1,1,,,0.0,0.0,0.0,0.0,1.0,1.0
2024-03-05,12942.746881541341,13188.510296841601,1,1,,,0.0,0.0,0.0,0.0,1.0,1.0
2024-03-06,12884.826936778158,13133.950348874072,1,1,,,0.0,0.0,0.0,0.0,1.0,1.0
2024-03-07,12957.22721296224,13202.150609036426,1,1,,,0.0,0.0,0.0,0.0,1.0,1.0
2024-03-08,12917.406992014974,13164.640400906543,1,1,,,0.0,0.0,0.0,0.0,1.0,1.0
2024-03-11,12931.887323435873,13178.280713101367,1,1,,,0.0,0.0,0.0,0.0,1.0,1.0
2024-03-12,12971.706163462728,13215.789620419482,1,1,,,0.0,0.0,0.0,0.0,1.0,1.0
2024-03-13,12949.98704725179,13195.330452939013,1,1,,,0.0,0.0,0.0,0.0,1.0,1.0
2024-03-14,13033.246881541341,13273.760296841601,1,1,,,0.0,0.0,0.0,0.0,1.0,1.0
2024-03-15,13091.166826304525,13328.32024480913,1,1,,,0.0,0.0,0.0,0.0,1.0,1.0
2024-03-18,13087.546052989095,13324.90951635454,1,1,,,0.0,0.0,0.0,0.0,1.0,1.0
2024-03-19,12953.60643964681,13198.739880581836,1,1,,,0.0,0.0,0.0,0.0,1.0,1.0
2024-03-20,12942.746881541341,13188.510296841601,1,1,,,0.0,0.0,0.0,0.0,1.0,1.0
2024-03-21,12671.246881541341,12932.760296841601,1,1,,,0.0,0.0,0.0,0.0,1.0,1.0
2024-03-22,12634.976882272857,13011.19014074419,0,1,SELL,,32.0739551525116,0.0,0.0,0.0,1.0,1.0
2024-03-25,12634.976882272857,12878.200348874072,0,1,,,0.0,0.0,0.0,0.0,1.0,1.0
2024-03-26,12634.976882272857,12936.169724484424,0,1,,,0.0,0.0,0.0,0.0,1.0,1.0
2024-03-27,12634.976882272857,13137.359776516894,0,1,,,0.0,0.0,0.0,0.0,1.0,1.0
2024-03-28,12634.976882272857,13072.57024480913,0,1,,,0.0,0.0,0.0,0.0,1.0,1.0
2024-04-01,12634.976882272857,13127.13019277666,0,1,,,0.0,0.0,0.0,0.0,1.0,1.0
2024-04-02,12634.976882272857,13123.71946432207,0,1,,,0.0,0.0,0.0,0.0,1.0,1.0
2024-04-03,12634.976882272857,13045.289620419482,0,1,,,0.0,0.0,0.0,0.0,1.0,1.0
2024-04-04,12634.976882272857,13120.310036679248,0,1,,,0.0,0.0,0.0,0.0,1.0,1.0
2024-04-05,12634.976882272857,13222.609776516894,0,1,,,0.0,0.0,0.0,0.0,1.0,1.0
2024-04-08,12634.976882272857,13297.63019277666,0,1,,,0.0,0.0,0.0,0.0,1.0,1.0
2024-04-09,12671.68805261323,13379.46946432207,1,1,BUY,,33.25662167930603,0.0,0.0,0.0,1.0,1.0
2024-04-10,12539.038630921335,13260.119984646777,1,1,,,0.0,0.0,0.0,0.0,1.0,1.0
2024-04-11,12656.52915139863,13365.830452939013,1,1,,,0.0,0.0,0.0,0.0,1.0,1.0
2024-04-12,12501.13920922944,13226.020504971484,1,1,,,0.0,0.0,0.0,0.0,1.0,1.0
2024-04-15,12516.29811044404,13239.65951635454,1,1,,,0.0,0.0,0.0,0.0,1.0,1.0
2024-04-16,12448.079440552683,13178.280713101367,1,1,,,0.0,0.0,0.0,0.0,1.0,1.0
2024-04-17,12501.13920922944,13226.020504971484,1,1,,,0.0,0.0,0.0,0.0,1.0,1.0
2024-04-18,12379.859324891062,13116.900609036426,1,1,,,0.0,0.0,0.0,0.0,1.0,1.0
2024-04-19,12497.348399598093,13222.609776516894,1,1,,,0.0,0.0,0.0,0.0,1.0,1.0
2024-04-22,12489.768226105662,13215.789620419482,1,1,,,0.0,0.0,0.0,0.0,1.0,1.0
2024-04-23,12323.008746582957,13065.750088711718,1,1,,,0.0,0.0,0.0,0.0,1.0,1.0
2024-04-24,12171.408168274851,12929.349568387011,1,1,,,0.0,0.0,0.0,0.0,1.0,1.0
2024-04-25,12129.71865983674,12891.840010663012,1,1,,,0.0,0.0,0.0,0.0,1.0,1.0
2024-04-26,12167.618804413767,12925.94014074419,1,1,,,0.0,0.0,0.0,0.0,1.0,1.0
2024-04-29,12243.41909356782,12994.140400906543,1,1,,,0.0,0.0,0.0,0.0,1.0,1.0
2024-04-30,12209.30903573701,12963.450348874072,1,1,,,0.0,0.0,0.0,0.0,1.0,1.0
2024-05-02,12292.68805261323,13038.46946432207,1,1,,,0.0,0.0,0.0,0.0,1.0,1.0
2024-05-03,12451.868804413767,13181.69014074419,1,1,,,0.0,0.0,0.0,0.0,1.0,1.0
2024-05-06,12611.04811044404,13324.90951635454,1,1,,,0.0,0.0,0.0,0.0,1.0,1.0
2024-05-07,12436.708457428904,13168.049828549365,1,1,,,0.0,0.0,0.0,0.0,1.0,1.0
2024-05-08,12368.488341767283,13106.669724484424,1,1,,,0.0,0.0,0.0,0.0,1.0,1.0
2024-05-09,12368.488341767283,13106.669724484424,1,1,,,0.0,0.0,0.0,0.0,1.0,1.0
2024-05-10,12561.77915139863,13280.580452939013,1,1,,,0.0,0.0,0.0,0.0,1.0,1.0
2024-05-13,12739.908168274851,13440.849568387011,1,1,,,0.0,0.0,0.0,0.0,1.0,1.0
2024-05-14,12891.508746582957,13577.250088711718,1,1,,,0.0,0.0,0.0,0.0,1.0,1.0
2024-05-15,12982.469382721873,13659.090661068896,1,1,,,0.0,0.0,0.0,0.0,1.0,1.0
2024-05-16,13062.05903573701,13730.700348874072,1,1,,,0.0,0.0,0.0,0.0,1.0,1.0
2024-05-17,12955.93805261323,13635.21946432207,1,1,,,0.0,0.0,0.0,0.0,1.0,1.0
2024-05-20,12777.80903573701,13474.950348874072,1,1,,,0.0,0.0,0.0,0.0,1.0,1.0
2024-05-21,12864.978862244578,13553.38019277666,1,1,,,0.0,0.0,0.0,0.0,1.0,1.0
2024-05-22,12648.948977906199,13359.010296841601,1,1,,,0.0,0.0,0.0,0.0,1.0,1.0
2024-05-23,12595.88920922944,13311.270504971484,1,1,,,0.0,0.0,0.0,0.0,1.0,1.0
2024-05-24,12395.018226105662,13130.539620419482,1,1,,,0.0,0.0,0.0,0.0,1.0,1.0
2024-05-27,12459.448977906199,13188.510296841601,1,1,,,0.0,0.0,0.0,0.0,1.0,1.0
2024-05-28,12288.898688752146,13035.060036679248,1,1,,,0.0,0.0,0.0,0.0,1.0,1.0
2024-05-29,12360.908168274851,13099.849568387011,1,1,,,0.0,0.0,0.0,0.0,1.0,1.0
2024-05-31,12247.208457428904,12997.549828549365,1,1,,,0.0,0.0,0.0,0.0,1.0,1.0
2024-06-03,12201.728862244578,12956.63019277666,1,1,,,0.0,0.0,0.0,0.0,1.0,1.0
2024-06-04,12357.118804413767,13096.44014074419,1,1,,,0.0,0.0,0.0,0.0,1.0,1.0
2024-06-05,12429.128283936472,13161.229672451953,1,1,,,0.0,0.0,0.0,0.0,1.0,1.0
2024-06-06,12493.55903573701,13219.200348874072,1,1,,,0.0,0.0,0.0,0.0,1.0,1.0
2024-06-07,12395.018226105662,13130.539620419482,1,1,,,0.0,0.0,0.0,0.0,1.0,1.0
2024-06-10,12368.488341767283,13106.669724484424,1,1,,,0.0,0.0,0.0,0.0,1.0,1.0
2024-06-11,12429.128283936472,13161.229672451953,1,1,,,0.0,0.0,0.0,0.0,1.0,1.0
2024-06-12,12311.63920922944,13055.520504971484,1,1,,,0.0,0.0,0.0,0.0,1.0,1.0
2024-06-13,12326.79811044404,13069.15951635454,1,1,,,0.0,0.0,0.0,0.0,1.0,1.0
2024-06-14,12307.848399598093,13052.109776516894,1,1,,,0.0,0.0,0.0,0.0,1.0,1.0
2024-06-17,12281.318515259714,13028.239880581836,1,1,,,0.0,0.0,0.0,0.0,1.0,1.0
2024-06-18,12304.05903573701,13048.700348874072,1,1,,,0.0,0.0,0.0,0.0,1.0,1.0
2024-06-19,12349.538630921335,13089.619984646777,1,1,,,0.0,0.0,0.0,0.0,1.0,1.0
2024-06-20,12402.598399598093,13137.359776516894,1,1,,,0.0,0.0,0.0,0.0,1.0,1.0
2024-06-21,12474.609324891062,13202.150609036426,1,1,,,0.0,0.0,0.0,0.0,1.0,1.0
2024-06-24,12751.27915139863,13451.080452939013,1,1,,,0.0,0.0,0.0,0.0,1.0,1.0
2024-06-25,12675.478862244578,13382.88019277666,1,1,,,0.0,0.0,0.0,0.0,1.0,1.0
2024-06-26,12493.55903573701,13219.200348874072,1,1,,,0.0,0.0,0.0,0.0,1.0,1.0
2024-06-27,12429.128283936472,13161.229672451953,1,1,,,0.0,0.0,0.0,0.0,1.0,1.0
2024-06-28,12485.978862244578,13212.38019277666,1,1,,,0.0,0.0,0.0,0.0,1.0,1.0
2024-07-01,12444.288630921335,13174.869984646777,1,1,,,0.0,0.0,0.0,0.0,1.0,1.0
2024-07-02,12448.079440552683,13178.280713101367,1,1,,,0.0,0.0,0.0,0.0,1.0,1.0
2024-07-03,12501.13920922944,13226.020504971484,1,1,,,0.0,0.0,0.0,0.0,1.0,1.0
2024-07-04,12573.148688752146,13290.810036679248,1,1,,,0.0,0.0,0.0,0.0,1.0,1.0
2024-07-05,12576.93805261323,13294.21946432207,1,1,,,0.0,0.0,0.0,0.0,1.0,1.0
2024-07-08,12584.518226105662,13301.039620419482,1,1,,,0.0,0.0,0.0,0.0,1.0,1.0
2024-07-09,12607.258746582957,13321.500088711718,1,1,,,0.0,0.0,0.0,0.0,1.0,1.0
2024-07-10,12633.788630921335,13345.369984646777,1,1,,,0.0,0.0,0.0,0.0,1.0,1.0
2024-07-11,12720.958457428904,13423.799828549365,1,1,,,0.0,0.0,0.0,0.0,1.0,1.0
2024-07-12,12876.348399598093,13563.609776516894,1,1,,,0.0,0.0,0.0,0.0,1.0,1.0
2024-07-15,12906.66909356782,13590.890400906543,1,1,,,0.0,0.0,0.0,0.0,1.0,1.0
2024-07-16,12971.098399598093,13648.859776516894,1,1,,,0.0,0.0,0.0,0.0,1.0,1.0
2024-07-17,13069.63920922944,13737.520504971484,1,1,,,0.0,0.0,0.0,0.0,1.0,1.0
2024-07-18,13035.52915139863,13706.830452939013,1,1,,,0.0,0.0,0.0,0.0,1.0,1.0
2024-07-19,12929.408168274851,13611.349568387011,1,1,,,0.0,0.0,0.0,0.0,1.0,1.0
2024-07-22,13062.05903573701,13730.700348874072,1,1,,,0.0,0.0,0.0,0.0,1.0,1.0
2024-07-23,12952.148688752146,13631.810036679248,1,1,,,0.0,0.0,0.0,0.0,1.0,1.0
2024-07-24,12967.30903573701,13645.450348874072,1,1,,,0.0,0.0,0.0,0.0,1.0,1.0
2024-07-25,12929.408168274851,13611.349568387011,1,1,,,0.0,0.0,0.0,0.0,1.0,1.0
2024-07-26,13118.908168274851,13781.849568387011,1,1,,,0.0,0.0,0.0,0.0,1.0,1.0
2024-07-29,13149.228862244578,13809.13019277666,1,1,,,0.0,0.0,0.0,0.0,1.0,1.0
2024-07-30,13259.13920922944,13908.020504971484,1,1,,,0.0,0.0,0.0,0.0,1.0,1.0
2024-07-31,13334.93805261323,13976.21946432207,1,1,,,0.0,0.0,0.0,0.0,1.0,1.0
2024-08-01,13289.458457428904,13935.299828549365,1,1,,,0.0,0.0,0.0,0.0,1.0,1.0
2024-08-02,13232.609324891062,13884.150609036426,1,1,,,0.0,0.0,0.0,0.0,1.0,1.0
2024-08-05,13118.908168274851,13781.849568387011,1,1,,,0.0,0.0,0.0,0.0,1.0,1.0
2024-08-06,13232.609324891062,13884.150609036426,1,1,,,0.0,0.0,0.0,0.0,1.0,1.0
2024-08-07,13297.038630921335,13942.119984646777,1,1,,,0.0,0.0,0.0,0.0,1.0,1.0
2024-08-08,13702.568515259714,14306.989880581836,1,1,,,0.0,0.0,0.0,0.0,1.0,1.0
2024-08-09,13710.148688752146,14313.810036679248,1,1,,,0.0,0.0,0.0,0.0,1.0,1.0
2024-08-12,13895.859324891062,14480.900609036426,1,1,,,0.0,0.0,0.0,0.0,1.0,1.0
2024-08-13,14077.77915139863,14644.580452939013,1,1,,,0.0,0.0,0.0,0.0,1.0,1.0
2024-08-14,14199.05903573701,14753.700348874072,1,1,,,0.0,0.0,0.0,0.0,1.0,1.0
2024-08-15,14145.999267060251,14705.960557003955,1,1,,,0.0,0.0,0.0,0.0,1.0,1.0
2024-08-16,14138.41909356782,14699.140400906543,1,1,,,0.0,0.0,0.0,0.0,1.0,1.0
2024-08-19,14195.612968428904,14750.599797549366,1,1,,,0.0,0.0,527.154511,474.299969,1.0,1.0
2024-08-20,14195.612968428904,14750.599797549366,1,1,,,0.0,0.0,0.0,0.0,1.0,1.0
2024-08-21,14203.193141921336,14757.419953646779,1,1,,,0.0,0.0,0.0,0.0,1.0,1.0
2024-08-22,14157.71354673701,14716.500317874074,1,1,,,0.0,0.0,0.0,0.0,1.0,1.0
2024-08-23,14551.873893721873,15071.140630068898,1,1,,,0.0,0.0,0.0,0.0,1.0,1.0
2024-08-26,14419.223026259715,14951.789849581837,1,1,,,0.0,0.0,0.0,0.0,1.0,1.0
2024-08-27,14419.223026259715,14951.789849581837,1,1,,,0.0,0.0,0.0,0.0,1.0,1.0
2024-08-28,14332.053199752147,14873.36000567925,1,1,,,0.0,0.0,0.0,0.0,1.0,1.0
2024-08-29,14385.112968428904,14921.099797549366,1,1,,,0.0,0.0,0.0,0.0,1.0,1.0
2024-08-30,14453.333084090526,14982.479901614308,1,1,,,0.0,0.0,0.0,0.0,1.0,1.0
2024-09-02,14445.752910598094,14975.659745516896,1,1,,,0.0,0.0,0.0,0.0,1.0,1.0
2024-09-03,14510.183662398631,15033.630421939015,1,1,,,0.0,0.0,0.0,0.0,1.0,1.0
2024-09-04,14714.84256361323,15217.769433322072,1,1,,,0.0,0.0,0.0,0.0,1.0,1.0
2024-09-05,14536.71354673701,15057.500317874074,1,1,,,0.0,0.0,0.0,0.0,1.0,1.0
2024-09-06,14445.752910598094,14975.659745516896,1,1,,,0.0,0.0,0.0,0.0,1.0,1.0
2024-09-09,14419.223026259715,14951.789849581837,1,1,,,0.0,0.0,0.0,0.0,1.0,1.0
2024-09-10,14411.642852767283,14944.969693484425,1,1,,,0.0,0.0,0.0,0.0,1.0,1.0
2024-09-11,14328.263835891063,14869.950578036427,1,1,,,0.0,0.0,0.0,0.0,1.0,1.0
2024-09-12,14214.562679274852,14767.649537387013,1,1,,,0.0,0.0,0.0,0.0,1.0,1.0
2024-09-13,14248.672737105662,14798.339589419484,1,1,,,0.0,0.0,0.0,0.0,1.0,1.0
2024-09-16,14328.263835891063,14869.950578036427,1,1,,,0.0,0.0,0.0,0.0,1.0,1.0
2024-09-17,14161.502910598094,14719.909745516896,1,1,,,0.0,0.0,0.0,0.0,1.0,1.0
2024-09-18,14021.273315413768,14593.74010974419,1,1,,,0.0,0.0,0.0,0.0,1.0,1.0
2024-09-19,13934.1034889062,14515.310265841603,1,1,,,0.0,0.0,0.0,0.0,1.0,1.0
2024-09-20,13801.452621444041,14395.959485354542,1,1,,,0.0,0.0,0.0,0.0,1.0,1.0
2024-09-23,13756.952791944084,14436.880421939015,0,1,SELL,,34.96250954246521,0.0,0.0,0.0,1.0,1.0
2024-09-24,13756.952791944084,14535.769433322072,0,1,,,0.0,0.0,0.0,0.0,1.0,1.0
2024-09-25,13756.952791944084,14511.899537387013,0,1,,,0.0,0.0,0.0,0.0,1.0,1.0
2024-09-26,13756.952791944084,14552.820473971486,0,1,,,0.0,0.0,0.0,0.0,1.0,1.0
2024-09-27,13756.952791944084,14518.719693484425,0,1,,,0.0,0.0,0.0,0.0,1.0,1.0
2024-09-30,13756.952791944084,14563.05005771172,0,1,,,0.0,0.0,0.0,0.0,1.0,1.0
2024-10-01,13756.952791944084,14648.30005771172,0,1,,,0.0,0.0,0.0,0.0,1.0,1.0
2024-10-02,13756.952791944084,14549.409745516896,0,1,,,0.0,0.0,0.0,0.0,1.0,1.0
2024-10-03,13756.952791944084,14433.469693484425,0,1,,,0.0,0.0,0.0,0.0,1.0,1.0
2024-10-04,13756.952791944084,14419.830682101368,0,1,,,0.0,0.0,0.0,0.0,1.0,1.0
2024-10-07,13756.952791944084,14198.180161776661,0,1,,,0.0,0.0,0.0,0.0,1.0,1.0
2024-10-08,13756.952791944084,14153.849797549366,0,1,,,0.0,0.0,0.0,0.0,1.0,1.0
2024-10-09,13756.952791944084,14000.399537387013,0,1,,,0.0,0.0,0.0,0.0,1.0,1.0
2024-10-10,13756.952791944084,13996.99010974419,0,1,,,0.0,0.0,0.0,0.0,1.0,1.0
2024-10-11,13756.952791944084,14003.810265841603,0,1,,,0.0,0.0,0.0,0.0,1.0,1.0
2024-10-14,13756.952791944084,14041.320473971486,0,1,,,0.0,0.0,0.0,0.0,1.0,1.0
2024-10-15,13756.952791944084,14027.680161776661,0,1,,,0.0,0.0,0.0,0.0,1.0,1.0
2024-10-16,13756.952791944084,14065.190369906544,0,1,,,0.0,0.0,0.0,0.0,1.0,1.0
2024-10-17,13756.952791944084,14048.140630068898,0,1,,,0.0,0.0,0.0,0.0,1.0,1.0
2024-10-18,13756.952791944084,13990.169953646779,0,1,,,0.0,0.0,0.0,0.0,1.0,1.0
2024-10-21,13756.952791944084,14034.500317874074,0,1,,,0.0,0.0,0.0,0.0,1.0,1.0
2024-10-22,13756.952791944084,14167.49010974419,0,1,,,0.0,0.0,0.0,0.0,1.0,1.0
2024-10-23,13807.078161068444,14160.669953646779,1,1,BUY,,34.12705561065674,0.0,0.0,0.0,1.0,1.0
2024-10-24,13823.158529110437,14174.310265841603,1,1,,,0.0,0.0,0.0,0.0,1.0,1.0
2024-10-25,13799.037977047448,14153.849797549366,1,1,,,0.0,0.0,0.0,0.0,1.0,1.0
2024-10-28,13831.198713131433,14181.130421939015,1,1,,,0.0,0.0,0.0,0.0,1.0,1.0
2024-10-29,13879.438283749108,14222.05005771172,1,1,,,0.0,0.0,0.0,0.0,1.0,1.0
2024-10-30,13879.438283749108,14222.05005771172,1,1,,,0.0,0.0,0.0,0.0,1.0,1.0
2024-10-31,13786.978467770105,14143.620213809132,1,1,,,0.0,0.0,0.0,0.0,1.0,1.0
2024-11-01,13790.997793026452,14147.029641451954,1,1,,,0.0,0.0,0.0,0.0,1.0,1.0
2024-11-04,13935.71803838778,14269.789849581837,1,1,,,0.0,0.0,0.0,0.0,1.0,1.0
2024-11-05,14124.658529110437,14430.060265841603,1,1,,,0.0,0.0,0.0,0.0,1.0,1.0
2024-11-06,13923.658529110437,14259.560265841603,1,1,,,0.0,0.0,0.0,0.0,1.0,1.0
2024-11-07,14000.037977047448,14324.349797549366,1,1,,,0.0,0.0,0.0,0.0,1.0,1.0
2024-11-08,13795.0186517911,14150.440369906544,1,1,,,0.0,0.0,0.0,0.0,1.0,1.0
2024-11-11,13758.838590450769,14119.750317874074,1,1,,,0.0,0.0,0.0,0.0,1.0,1.0
2024-11-12,13573.91895849276,13962.890630068898,1,1,,,0.0,0.0,0.0,0.0,1.0,1.0
2024-11-13,13493.5186517911,13894.690369906544,1,1,,,0.0,0.0,0.0,0.0,1.0,1.0
2024-11-14,13441.258222408776,13850.36000567925,1,1,,,0.0,0.0,0.0,0.0,1.0,1.0
2024-11-18,13489.497793026452,13891.279641451954,1,1,,,0.0,0.0,0.0,0.0,1.0,1.0
2024-11-19,13758.838590450769,14119.750317874074,1,1,,,0.0,0.0,0.0,0.0,1.0,1.0
2024-11-21,13469.398099728112,13874.229901614308,1,1,,,0.0,0.0,0.0,0.0,1.0,1.0
2024-11-22,13658.338590450769,14034.500317874074,1,1,,,0.0,0.0,0.0,0.0,1.0,1.0
2024-11-25,13706.578161068444,14075.419953646779,1,1,,,0.0,0.0,0.0,0.0,1.0,1.0
2024-11-26,13730.698713131433,14095.880421939015,1,1,,,0.0,0.0,0.0,0.0,1.0,1.0
2024-11-27,13521.658529110437,13918.560265841603,1,1,,,0.0,0.0,0.0,0.0,1.0,1.0
2024-11-28,13449.298406429773,13857.180161776661,1,1,,,0.0,0.0,0.0,0.0,1.0,1.0
2024-11-29,13489.497793026452,13891.279641451954,1,1,,,0.0,0.0,0.0,0.0,1.0,1.0
2024-12-02,13529.698713131433,13925.380421939015,1,1,,,0.0,0.0,0.0,0.0,1.0,1.0
2024-12-03,14096.5186517911,14406.190369906544,1,1,,,0.0,0.0,0.0,0.0,1.0,1.0
2024-12-04,14080.438283749108,14392.55005771172,1,1,,,0.0,0.0,0.0,0.0,1.0,1.0
2024-12-05,14241.238897152429,14528.950578036427,1,1,,,0.0,0.0,0.0,0.0,1.0,1.0
2024-12-06,14249.277547665124,14535.769433322072,1,1,,,0.0,0.0,0.0,0.0,1.0,1.0
2024-12-09,14345.758222408776,14617.61000567925,1,1,,,0.0,0.0,0.0,0.0,1.0,1.0
2024-12-10,14510.578161068444,14757.419953646779,1,1,,,0.0,0.0,0.0,0.0,1.0,1.0
2024-12-11,14868.357915707116,15060.909745516896,1,1,,,0.0,0.0,0.0,0.0,1.0,1.0
2024-12-12,14707.558835812097,14924.510526003956,1,1,,,0.0,0.0,0.0,0.0,1.0,1.0
2024-12-13,14739.71803838778,14951.789849581837,1,1,,,0.0,0.0,0.0,0.0,1.0,1.0
2024-12-16,14562.838590450769,14801.750317874074,1,1,,,0.0,0.0,0.0,0.0,1.0,1.0
2024-12-17,14900.5186517911,15088.190369906544,1,1,,,0.0,0.0,0.0,0.0,1.0,1.0
2024-12-18,14832.177854366784,15030.219693484425,1,1,,,0.0,0.0,0.0,0.0,1.0,1.0
2024-12-19,15017.099019833093,15187.080682101368,1,1,,,0.0,0.0,0.0,0.0,1.0,1.0
2024-12-20,14695.497793026452,14914.279641451954,1,1,,,0.0,0.0,0.0,0.0,1.0,1.0
2024-12-23,14679.41895849276,14900.640630068898,1,1,,,0.0,0.0,0.0,0.0,1.0,1.0
2024-12-26,14671.378774471765,14893.820473971486,1,1,,,0.0,0.0,0.0,0.0,1.0,1.0
2024-12-27,14594.997793026452,14829.029641451954,1,1,,,0.0,0.0,0.0,0.0,1.0,1.0
2024-12-30,14554.798406429773,14794.930161776661,1,1,,,0.0,0.0,0.0,0.0,1.0,1.0
2025-01-02,14651.277547665124,14876.769433322072,1,1,,,0.0,0.0,0.0,0.0,1.0,1.0
2025-01-03,14478.41895849276,14730.140630068898,1,1,,,0.0,0.0,0.0,0.0,1.0,1.0
2025-01-06,14647.258222408776,14873.36000567925,1,1,,,0.0,0.0,0.0,0.0,1.0,1.0
2025-01-07,14695.497793026452,14914.279641451954,1,1,,,0.0,0.0,0.0,0.0,1.0,1.0
2025-01-08,14607.058835812097,14839.260526003956,1,1,,,0.0,0.0,0.0,0.0,1.0,1.0
2025-01-09,14594.997793026452,14829.029641451954,1,1,,,0.0,0.0,0.0,0.0,1.0,1.0
2025-01-10,14538.71803838778,14781.289849581837,1,1,,,0.0,0.0,0.0,0.0,1.0,1.0
2025-01-13,14554.798406429773,14794.930161776661,1,1,,,0.0,0.0,0.0,0.0,1.0,1.0
2025-01-14,14844.238897152429,15040.450578036427,1,1,,,0.0,0.0,0.0,0.0,1.0,1.0
2025-01-15,15025.137670345788,15193.899537387013,1,1,,,0.0,0.0,0.0,0.0,1.0,1.0
2025-01-16,15045.238897152429,15210.950578036427,1,1,,,0.0,0.0,0.0,0.0,1.0,1.0
2025-01-17,15218.099019833093,15357.580682101368,1,1,,,0.0,0.0,0.0,0.0,1.0,1.0
2025-01-20,15246.238897152429,15381.450578036427,1,1,,,0.0,0.0,0.0,0.0,1.0,1.0
2025-01-21,15258.298406429773,15391.680161776661,1,1,,,0.0,0.0,0.0,0.0,1.0,1.0
2025-01-22,15370.857915707116,15487.159745516896,1,1,,,0.0,0.0,0.0,0.0,1.0,1.0
2025-01-23,15294.478467770105,15422.370213809132,1,1,,,0.0,0.0,0.0,0.0,1.0,1.0
2025-01-24,15218.099019833093,15357.580682101368,1,1,,,0.0,0.0,0.0,0.0,1.0,1.0
2025-01-27,15515.578161068444,15609.919953646779,1,1,,,0.0,0.0,0.0,0.0,1.0,1.0
2025-01-28,15700.497793026452,15766.779641451954,1,1,,,0.0,0.0,0.0,0.0,1.0,1.0
2025-01-29,15591.957609005456,15674.709485354542,1,1,,,0.0,0.0,0.0,0.0,1.0,1.0
2025-01-30,15523.61834508944,15616.74010974419,1,1,,,0.0,0.0,0.0,0.0,1.0,1.0
2025-01-31,15503.5186517911,15599.690369906544,1,1,,,0.0,0.0,0.0,0.0,1.0,1.0
2025-02-03,15700.497793026452,15766.779641451954,1,1,,,0.0,0.0,0.0,0.0,1.0,1.0
2025-02-04,15684.41895849276,15753.140630068898,1,1,,,0.0,0.0,0.0,0.0,1.0,1.0
2025-02-05,15796.978467770105,15848.620213809132,1,1,,,0.0,0.0,0.0,0.0,1.0,1.0
2025-02-06,15981.898099728112,16005.479901614308,1,1,,,0.0,0.0,0.0,0.0,1.0,1.0
2025-02-07,15809.037977047448,15858.849797549366,1,1,,,0.0,0.0,0.0,0.0,1.0,1.0
2025-02-10,15949.738897152429,15978.200578036427,1,1,,,0.0,0.0,0.0,0.0,1.0,1.0
2025-02-11,15708.537977047448,15773.599797549366,1,1,,,0.0,0.0,0.0,0.0,1.0,1.0
2025-02-12,15736.677854366784,15797.469693484425,1,1,,,0.0,0.0,0.0,0.0,1.0,1.0
2025-02-13,15483.41895849276,15582.640630068898,1,1,,,0.0,0.0,0.0,0.0,1.0,1.0
2025-02-14,15640.198713131433,15715.630421939015,1,1,,,0.0,0.0,0.0,0.0,1.0,1.0
2025-02-17,15286.438283749108,15415.55005771172,1,1,,,0.0,0.0,0.0,0.0,1.0,1.0
2025-02-18,15969.838590450769,15995.250317874074,1,1,,,0.0,0.0,0.0,0.0,1.0,1.0
2025-02-19,15985.91895849276,16008.890630068898,1,1,,,0.0,0.0,0.0,0.0,1.0,1.0
2025-02-20,16034.158529110437,16049.810265841603,1,1,,,0.0,0.0,0.0,0.0,1.0,1.0
2025-02-21,15829.202515026453,15875.954542451953,1,1,,,0.0,0.0,932.7047220000001,791.1749010000001,1.0,1.0
2025-02-24,16014.123680492761,16032.815531068896,1,1,,,0.0,0.0,0.0,0.0,1.0,1.0
2025-02-25,15994.02245368612,16015.764490419482,1,1,,,0.0,0.0,0.0,0.0,1.0,1.0
2025-02-26,16030.202515026453,16046.454542451953,1,1,,,0.0,0.0,0.0,0.0,1.0,1.0
2025-02-27,16400.04331245077,16360.175218874072,1,1,,,0.0,0.0,0.0,0.0,1.0,1.0
2025-02-28,16154.82306708944,16152.16501074419,1,1,,,0.0,0.0,0.0,0.0,1.0,1.0
2025-03-05,16500.54331245077,16445.425218874072,1,1,,,0.0,0.0,0.0,0.0,1.0,1.0
2025-03-06,16641.24269904745,16564.774698549365,1,1,,,0.0,0.0,0.0,0.0,1.0,1.0
2025-03-07,16629.183189770105,16554.54511480913,1,1,,,0.0,0.0,0.0,0.0,1.0,1.0
2025-03-10,16597.02245368612,16527.264490419482,1,1,,,0.0,0.0,0.0,0.0,1.0,1.0
2025-03-11,16452.303741833093,16404.505583101367,1,1,,,0.0,0.0,0.0,0.0,1.0,1.0
2025-03-12,16448.282883068445,16401.094854646777,1,1,,,0.0,0.0,0.0,0.0,1.0,1.0
2025-03-13,16685.462944408777,16602.284906679248,1,1,,,0.0,0.0,0.0,0.0,1.0,1.0
2025-03-14,16946.763557812097,16823.935427003955,1,1,,,0.0,0.0,0.0,0.0,1.0,1.0
2025-03-17,17023.14300574911,16888.72495871172,1,1,,,0.0,0.0,0.0,0.0,1.0,1.0
2025-03-18,17175.903435131433,17018.305322939013,1,1,,,0.0,0.0,0.0,0.0,1.0,1.0
2025-03-19,17115.602821728113,16967.154802614306,1,1,,,0.0,0.0,0.0,0.0,1.0,1.0
2025-03-20,17228.162331005457,17062.63438635454,1,1,,,0.0,0.0,0.0,0.0,1.0,1.0
2025-03-21,17147.763557812097,16994.435427003955,1,1,,,0.0,0.0,0.0,0.0,1.0,1.0
2025-03-24,17031.183189770105,16895.54511480913,1,1,,,0.0,0.0,0.0,0.0,1.0,1.0
2025-03-25,16970.882576366785,16844.394594484424,1,1,,,0.0,0.0,0.0,0.0,1.0,1.0
2025-03-26,17075.403435131433,16933.055322939013,1,1,,,0.0,0.0,0.0,0.0,1.0,1.0
2025-03-27,17175.903435131433,17018.305322939013,1,1,,,0.0,0.0,0.0,0.0,1.0,1.0
2025-03-28,17127.662331005457,16977.38438635454,1,1,,,0.0,0.0,0.0,0.0,1.0,1.0
2025-03-31,17143.74269904745,16991.024698549365,1,1,,,0.0,0.0,0.0,0.0,1.0,1.0
2025-04-01,17505.54331245077,17297.925218874072,1,1,,,0.0,0.0,0.0,0.0,1.0,1.0
2025-04-02,17212.083496471765,17048.995374971484,1,1,,,0.0,0.0,0.0,0.0,1.0,1.0
2025-04-03,17501.52245368612,17294.514490419482,1,1,,,0.0,0.0,0.0,0.0,1.0,1.0
2025-04-04,17123.64300574911,16973.97495871172,1,1,,,0.0,0.0,0.0,0.0,1.0,1.0
2025-04-07,17051.282883068445,16912.594854646777,1,1,,,0.0,0.0,0.0,0.0,1.0,1.0
2025-04-08,17204.04331245077,17042.175218874072,1,1,,,0.0,0.0,0.0,0.0,1.0,1.0
2025-04-09,17340.7233737911,17158.115270906543,1,1,,,0.0,0.0,0.0,0.0,1.0,1.0
2025-04-10,16886.462944408777,16772.784906679248,1,1,,,0.0,0.0,0.0,0.0,1.0,1.0
2025-04-11,17015.102821728113,16881.904802614306,1,1,,,0.0,0.0,0.0,0.0,1.0,1.0
2025-04-14,17139.7233737911,16987.615270906543,1,1,,,0.0,0.0,0.0,0.0,1.0,1.0
2025-04-15,17268.363251110437,17096.7351668416,1,1,,,0.0,0.0,0.0,0.0,1.0,1.0
2025-04-16,17204.04331245077,17042.175218874072,1,1,,,0.0,0.0,0.0,0.0,1.0,1.0
2025-04-17,17320.62368049276,17141.065531068896,1,1,,,0.0,0.0,0.0,0.0,1.0,1.0
2025-04-22,17384.94361915243,17195.625479036426,1,1,,,0.0,0.0,0.0,0.0,1.0,1.0
2025-04-23,17497.503128429773,17291.10506277666,1,1,,,0.0,0.0,0.0,0.0,1.0,1.0
2025-04-24,17674.382576366785,17441.144594484424,1,1,,,0.0,0.0,0.0,0.0,1.0,1.0
2025-04-25,17847.24269904745,17587.774698549365,1,1,,,0.0,0.0,0.0,0.0,1.0,1.0
2025-04-28,17995.982269665124,17713.94433432207,1,1,,,0.0,0.0,0.0,0.0,1.0,1.0
2025-04-29,17758.803741833093,17512.755583101367,1,1,,,0.0,0.0,0.0,0.0,1.0,1.0
2025-04-30,18136.683189770105,17833.29511480913,1,1,,,0.0,0.0,0.0,0.0,1.0,1.0
2025-05-02,17887.44361915243,17621.875479036426,1,1,,,0.0,0.0,0.0,0.0,1.0,1.0
2025-05-05,17803.02245368612,17550.264490419482,1,1,,,0.0,0.0,0.0,0.0,1.0,1.0
2025-05-06,16548.782883068445,16486.344854646777,1,1,,,0.0,0.0,0.0,0.0,1.0,1.0
2025-05-07,16585.97296471164,16619.334646516894,0,1,SELL,,38.99049332237244,0.0,0.0,0.0,1.0,1.0
2025-05-08,16585.97296471164,16271.514490419482,0,1,,,0.0,0.0,0.0,0.0,1.0,1.0
2025-05-09,16585.97296471164,16319.255583101367,0,1,,,0.0,0.0,0.0,0.0,1.0,1.0
2025-05-12,16585.97296471164,16182.85506277666,0,1,,,0.0,0.0,0.0,0.0,1.0,1.0
2025-05-13,16585.97296471164,16309.024698549365,0,1,,,0.0,0.0,0.0,0.0,1.0,1.0
2025-05-14,16585.97296471164,16380.63438635454,0,1,,,0.0,0.0,0.0,0.0,1.0,1.0
2025-05-15,16585.97296471164,16380.63438635454,0,1,,,0.0,0.0,0.0,0.0,1.0,1.0
2025-05-16,16585.97296471164,16135.115270906543,0,1,,,0.0,0.0,0.0,0.0,1.0,1.0
2025-05-19,16585.97296471164,16285.154802614306,0,1,,,0.0,0.0,0.0,0.0,1.0,1.0
2025-05-20,16585.97296471164,16339.714750581836,0,1,,,0.0,0.0,0.0,0.0,1.0,1.0
2025-05-21,16585.97296471164,16244.235166841601,0,1,,,0.0,0.0,0.0,0.0,1.0,1.0
2025-05-22,16585.97296471164,16124.88438635454,0,1,,,0.0,0.0,0.0,0.0,1.0,1.0
2025-05-23,16585.97296471164,16240.824438387011,0,1,,,0.0,0.0,0.0,0.0,1.0,1.0
2025-05-26,16585.97296471164,16193.084646516894,0,1,,,0.0,0.0,0.0,0.0,1.0,1.0
2025-05-27,16585.97296471164,16319.255583101367,0,1,,,0.0,0.0,0.0,0.0,1.0,1.0
2025-05-28,16585.97296471164,16261.284906679248,0,1,,,0.0,0.0,0.0,0.0,1.0,1.0
2025-05-29,16585.97296471164,16182.85506277666,0,1,,,0.0,0.0,0.0,0.0,1.0,1.0
2025-05-30,16585.97296471164,16039.63438635454,0,1,,,0.0,0.0,0.0,0.0,1.0,1.0
2025-06-02,16585.97296471164,15862.315531068896,0,1,,,0.0,0.0,0.0,0.0,1.0,1.0
2025-06-03,16585.97296471164,15746.375479036426,0,1,,,0.0,0.0,0.0,0.0,1.0,1.0
2025-06-04,16585.97296471164,15524.724958711719,0,1,,,0.0,0.0,0.0,0.0,1.0,1.0
2025-06-05,16585.97296471164,15627.024698549365,0,1,,,0.0,0.0,0.0,0.0,1.0,1.0
2025-06-06,16585.97296471164,15674.764490419482,0,1,,,0.0,0.0,0.0,0.0,1.0,1.0
2025-06-09,16585.97296471164,15620.204542451953,0,1,,,0.0,0.0,0.0,0.0,1.0,1.0
2025-06-10,16585.97296471164,15354.224958711719,0,1,,,0.0,0.0,0.0,0.0,1.0,1.0
2025-06-11,16585.97296471164,15228.055322939013,0,1,,,0.0,0.0,0.0,0.0,1.0,1.0
2025-06-12,16585.97296471164,15282.615270906543,0,1,,,0.0,0.0,0.0,0.0,1.0,1.0
2025-06-13,16585.97296471164,15357.63438635454,0,1,,,0.0,0.0,0.0,0.0,1.0,1.0
2025-06-16,16585.97296471164,15463.344854646777,0,1,,,0.0,0.0,0.0,0.0,1.0,1.0
2025-06-17,16585.97296471164,15361.04511480913,0,1,,,0.0,0.0,0.0,0.0,1.0,1.0
2025-06-18,16585.97296471164,15364.454542451953,0,1,,,0.0,0.0,0.0,0.0,1.0,1.0
2025-06-20,16585.97296471164,15248.514490419482,0,1,,,0.0,0.0,0.0,0.0,1.0,1.0
2025-06-23,16585.97296471164,15357.63438635454,0,1,,,0.0,0.0,0.0,0.0,1.0,1.0
2025-06-24,16585.97296471164,15323.534906679248,0,1,,,0.0,0.0,0.0,0.0,1.0,1.0
2025-06-25,16585.97296471164,15200.774698549365,0,1,,,0.0,0.0,0.0,0.0,1.0,1.0
2025-06-26,16585.97296471164,15248.514490419482,0,1,,,0.0,0.0,0.0,0.0,1.0,1.0
2025-06-27,16585.97296471164,15262.154802614306,0,1,,,0.0,0.0,0.0,0.0,1.0,1.0
2025-06-30,16585.97296471164,15456.524698549365,0,1,,,0.0,0.0,0.0,0.0,1.0,1.0
2025-07-01,16521.993185401836,15671.35506277666,1,1,BUY,,36.49823954200745,0.0,0.0,0.0,1.0,1.0
2025-07-02,16440.453047157207,15609.974958711719,1,1,,,0.0,0.0,0.0,0.0,1.0,1.0
2025-07-03,16549.173807502666,15691.815531068896,1,1,,,0.0,0.0,0.0,0.0,1.0,1.0
2025-07-04,16558.232286811748,15698.63438635454,1,1,,,0.0,0.0,0.0,0.0,1.0,1.0
2025-07-07,16367.973116279521,15555.41501074419,1,1,,,0.0,0.0,0.0,0.0,1.0,1.0
2025-07-08,16232.073461891094,15453.115270906543,1,1,,,0.0,0.0,0.0,0.0,1.0,1.0
2025-07-09,15973.863600135723,15258.745374971484,1,1,,,0.0,0.0,0.0,0.0,1.0,1.0
2025-07-10,16010.102701545635,15286.024698549365,1,1,,,0.0,0.0,0.0,0.0,1.0,1.0
2025-07-11,15973.863600135723,15258.745374971484,1,1,,,0.0,0.0,0.0,0.0,1.0,1.0
2025-07-14,16014.633669258037,15289.435427003955,1,1,,,0.0,0.0,0.0,0.0,1.0,1.0
2025-07-15,15847.022425056377,15163.264490419482,1,1,,,0.0,0.0,0.0,0.0,1.0,1.0
2025-07-16,15801.723116279521,15129.16501074419,1,1,,,0.0,0.0,0.0,0.0,1.0,1.0
2025-07-17,15797.19387662498,15125.755583101367,1,1,,,0.0,0.0,0.0,0.0,1.0,1.0
2025-07-18,15566.162908912578,14951.844854646777,1,1,,,0.0,0.0,0.0,0.0,1.0,1.0
2025-07-21,15629.58263242332,14999.584646516894,1,1,,,0.0,0.0,0.0,0.0,1.0,1.0
2025-07-22,15271.712217689434,14730.19433432207,1,1,,,0.0,0.0,0.0,0.0,1.0,1.0
2025-07-23,15256.19097391383,14767.704542451953,0,1,SELL,,33.703141220092775,0.0,0.0,0.0,1.0,1.0
2025-07-24,15256.19097391383,14702.91501074419,0,1,,,0.0,0.0,0.0,0.0,1.0,1.0
2025-07-25,15256.19097391383,14682.454542451953,0,1,,,0.0,0.0,0.0,0.0,1.0,1.0
2025-07-28,15256.19097391383,14689.274698549365,0,1,,,0.0,0.0,0.0,0.0,1.0,1.0
2025-07-29,15256.19097391383,14743.834646516894,0,1,,,0.0,0.0,0.0,0.0,1.0,1.0
2025-07-30,15256.19097391383,14716.555322939013,0,1,,,0.0,0.0,0.0,0.0,1.0,1.0
2025-07-31,15256.19097391383,14740.425218874072,0,1,,,0.0,0.0,0.0,0.0,1.0,1.0
2025-08-01,15256.19097391383,14651.764490419482,0,1,,,0.0,0.0,0.0,0.0,1.0,1.0
2025-08-04,15256.19097391383,14689.274698549365,0,1,,,0.0,0.0,0.0,0.0,1.0,1.0
2025-08-05,15256.19097391383,14818.85506277666,0,1,,,0.0,0.0,0.0,0.0,1.0,1.0
2025-08-06,15256.19097391383,14972.305322939013,0,1,,,0.0,0.0,0.0,0.0,1.0,1.0
2025-08-07,15256.19097391383,14999.584646516894,0,1,,,0.0,0.0,0.0,0.0,1.0,1.0
2025-08-08,15256.19097391383,15002.995374971484,0,1,,,0.0,0.0,0.0,0.0,1.0,1.0
2025-08-11,15256.19097391383,15125.755583101367,0,1,,,0.0,0.0,0.0,0.0,1.0,1.0
2025-08-12,15296.266645488238,15262.154802614306,1,1,BUY,,35.06752423667908,0.0,0.0,0.0,1.0,1.0
2025-08-13,15192.107572612262,15180.315531068896,1,1,,,0.0,0.0,0.0,0.0,1.0,1.0
2025-08-14,15335.326711711383,15292.844854646777,1,1,,,0.0,0.0,0.0,0.0,1.0,1.0
2025-08-15,15080.17647149654,15092.369665906543,1,1,,,0.0,0.0,842.8692299999999,662.2543949999999,1.0,1.0
2025-08-18,15110.55633905025,15116.239561841601,1,1,,,0.0,0.0,0.0,0.0,1.0,1.0
2025-08-19,14832.796603942828,14897.999769971484,1,1,,,0.0,0.0,0.0,0.0,1.0,1.0
2025-08-20,14702.596107269244,14795.699379727954,1,1,,,0.0,0.0,0.0,0.0,1.0,1.0
2025-08-21,14576.735709930377,14696.80906753313,1,1,,,0.0,0.0,0.0,0.0,1.0,1.0
2025-08-22,14650.51574304195,14754.779093549365,1,1,,,0.0,0.0,0.0,0.0,1.0,1.0
2025-08-25,14811.095279479938,14880.94872932207,1,1,,,0.0,0.0,0.0,0.0,1.0,1.0
2025-08-26,14850.155345703082,14911.63878135454,1,1,,,0.0,0.0,0.0,0.0,1.0,1.0
2025-08-27,14954.316074157672,14993.479353711718,1,1,,,0.0,0.0,0.0,0.0,1.0,1.0
2025-08-28,14971.67647149654,15007.119665906543,1,1,,,0.0,0.0,0.0,0.0,1.0,1.0
2025-08-29,15093.195941711383,15102.599249646777,1,1,,,0.0,0.0,0.0,0.0,1.0,1.0
2025-09-01,15036.775478149371,15058.268885419482,1,1,,,0.0,0.0,0.0,0.0,1.0,1.0
2025-09-02,14806.756007934528,14877.539301679248,1,1,,,0.0,0.0,0.0,0.0,1.0,1.0
2025-09-03,14759.01574304195,14840.029093549365,1,1,,,0.0,0.0,0.0,0.0,1.0,1.0
2025-09-04,14828.455676818805,14894.589041516894,1,1,,,0.0,0.0,0.0,0.0,1.0,1.0
2025-09-05,14841.476802612262,14904.819926068896,1,1,,,0.0,0.0,0.0,0.0,1.0,1.0
2025-09-08,14845.816074157672,14908.229353711718,1,1,,,0.0,0.0,0.0,0.0,1.0,1.0
2025-09-09,14941.296603942828,14983.249769971484,1,1,,,0.0,0.0,0.0,0.0,1.0,1.0
2025-09-10,14928.275478149371,14973.018885419482,1,1,,,0.0,0.0,0.0,0.0,1.0,1.0
2025-09-11,14906.575809265094,14955.969145581836,1,1,,,0.0,0.0,0.0,0.0,1.0,1.0
2025-09-12,14785.05633905025,14860.489561841601,1,1,,,0.0,0.0,0.0,0.0,1.0,1.0
2025-09-15,14802.416736389117,14874.129874036425,1,1,,,0.0,0.0,0.0,0.0,1.0,1.0
2025-09-16,14876.195941711383,14932.099249646777,1,1,,,0.0,0.0,0.0,0.0,1.0,1.0
2025-09-17,14967.335544372516,15003.708937451953,1,1,,,0.0,0.0,0.0,0.0,1.0,1.0
2025-09-18,15075.835544372516,15088.958937451953,1,1,,,0.0,0.0,0.0,0.0,1.0,1.0
2025-09-19,15136.595279479938,15136.69872932207,1,1,,,0.0,0.0,0.0,0.0,1.0,1.0
2025-09-22,15275.476802612262,15245.819926068896,1,1,,,0.0,0.0,0.0,0.0,1.0,1.0
2025-09-23,15301.51574304195,15266.279093549365,1,1,,,0.0,0.0,0.0,0.0,1.0,1.0
2025-09-24,15145.275478149371,15143.518885419482,1,1,,,0.0,0.0,0.0,0.0,1.0,1.0
2025-09-25,14989.036868835406,15020.759978101367,1,1,,,0.0,0.0,0.0,0.0,1.0,1.0
2025-09-26,14932.616405273395,14976.429613874072,1,1,,,0.0,0.0,0.0,0.0,1.0,1.0
2025-09-29,15023.756007934528,15048.039301679248,1,1,,,0.0,0.0,0.0,0.0,1.0,1.0
2025-09-30,15284.155345703082,15252.63878135454,1,1,,,0.0,0.0,0.0,0.0,1.0,1.0
2025-10-01,15349.256007934528,15303.789301679248,1,1,,,0.0,0.0,0.0,0.0,1.0,1.0
2025-10-02,15206.036868835406,15191.259978101367,1,1,,,0.0,0.0,0.0,0.0,1.0,1.0
2025-10-03,15093.195941711383,15102.599249646777,1,1,,,0.0,0.0,0.0,0.0,1.0,1.0
2025-10-06,15084.51574304195,15095.779093549365,1,1,,,0.0,0.0,0.0,0.0,1.0,1.0
2025-10-07,15197.356670165973,15184.439822003955,1,1,,,0.0,0.0,0.0,0.0,1.0,1.0
2025-10-08,15067.155345703082,15082.13878135454,1,1,,,0.0,0.0,0.0,0.0,1.0,1.0
2025-10-09,15067.155345703082,15082.13878135454,1,1,,,0.0,0.0,0.0,0.0,1.0,1.0
2025-10-10,14997.715411926227,15027.578833387011,1,1,,,0.0,0.0,0.0,0.0,1.0,1.0
2025-10-13,14932.616405273395,14976.429613874072,1,1,,,0.0,0.0,0.0,0.0,1.0,1.0
2025-10-14,14945.635875488239,14986.659197614306,1,1,,,0.0,0.0,0.0,0.0,1.0,1.0
2025-10-15,14741.655345703082,14826.38878135454,1,1,,,0.0,0.0,0.0,0.0,1.0,1.0
2025-10-16,14654.855842376666,14758.189171598071,1,1,,,0.0,0.0,0.0,0.0,1.0,1.0
2025-10-17,14719.955676818805,14809.339041516894,1,1,,,0.0,0.0,0.0,0.0,1.0,1.0
2025-10-20,14785.05633905025,14860.489561841601,1,1,,,0.0,0.0,0.0,0.0,1.0,1.0
2025-10-21,14698.256007934528,14792.289301679248,1,1,,,0.0,0.0,0.0,0.0,1.0,1.0
2025-10-22,14780.715411926227,14857.078833387011,1,1,,,0.0,0.0,0.0,0.0,1.0,1.0
2025-10-23,14741.655345703082,14826.38878135454,1,1,,,0.0,0.0,0.0,0.0,1.0,1.0
2025-10-24,14772.036868835406,14850.259978101367,1,1,,,0.0,0.0,0.0,0.0,1.0,1.0
2025-10-27,14811.095279479938,14880.94872932207,1,1,,,0.0,0.0,0.0,0.0,1.0,1.0
2025-10-28,15032.436206603961,15054.85945777666,1,1,,,0.0,0.0,0.0,0.0,1.0,1.0
2025-10-29,14919.595279479938,14966.19872932207,1,1,,,0.0,0.0,0.0,0.0,1.0,1.0
2025-10-30,15093.195941711383,15102.599249646777,1,1,,,0.0,0.0,0.0,0.0,1.0,1.0
2025-10-31,15106.215411926227,15112.828833387011,1,1,,,0.0,0.0,0.0,0.0,1.0,1.0
2025-11-03,15275.476802612262,15245.819926068896,1,1,,,0.0,0.0,0.0,0.0,1.0,1.0
2025-11-04,15449.075809265094,15382.219145581836,1,1,,,0.0,0.0,0.0,0.0,1.0,1.0
2025-11-05,15496.816074157672,15419.729353711718,1,1,,,0.0,0.0,0.0,0.0,1.0,1.0
2025-11-06,15705.135875488239,15583.409197614306,1,1,,,0.0,0.0,0.0,0.0,1.0,1.0
2025-11-07,15527.195941711383,15443.599249646777,1,1,,,0.0,0.0,0.0,0.0,1.0,1.0
2025-11-10,15752.876140380817,15620.91940574419,1,1,,,0.0,0.0,0.0,0.0,1.0,1.0
2025-11-11,15414.356670165973,15354.939822003955,1,1,,,0.0,0.0,0.0,0.0,1.0,1.0
2025-11-12,15297.17647149654,15262.869665906543,1,1,,,0.0,0.0,0.0,0.0,1.0,1.0
2025-11-13,15314.536868835406,15276.509978101367,1,1,,,0.0,0.0,0.0,0.0,1.0,1.0
2025-11-14,15514.17647149654,15433.369665906543,1,1,,,0.0,0.0,0.0,0.0,1.0,1.0
2025-11-17,15540.215411926227,15453.828833387011,1,1,,,0.0,0.0,0.0,0.0,1.0,1.0
2025-11-18,15383.976802612262,15331.069926068896,1,1,,,0.0,0.0,0.0,0.0,1.0,1.0
2025-11-19,15310.195941711383,15273.099249646777,1,1,,,0.0,0.0,0.0,0.0,1.0,1.0
2025-11-21,15288.496272827106,15256.04950980913,1,1,,,0.0,0.0,0.0,0.0,1.0,1.0
2025-11-24,15414.356670165973,15354.939822003955,1,1,,,0.0,0.0,0.0,0.0,1.0,1.0
2025-11-25,15666.075809265094,15552.719145581836,1,1,,,0.0,0.0,0.0,0.0,1.0,1.0
2025-11-26,15865.715411926227,15709.578833387011,1,1,,,0.0,0.0,0.0,0.0,1.0,1.0
2025-11-27,15817.976802612262,15672.069926068896,1,1,,,0.0,0.0,0.0,0.0,1.0,1.0
2025-11-28,15653.05633905025,15542.489561841601,1,1,,,0.0,0.0,0.0,0.0,1.0,1.0
2025-12-01,15870.05633905025,15712.989561841601,1,1,,,0.0,0.0,0.0,0.0,1.0,1.0
2025-12-02,15952.51574304195,15777.779093549365,1,1,,,0.0,0.0,0.0,0.0,1.0,1.0
2025-12-03,15930.816074157672,15760.729353711718,1,1,,,0.0,0.0,0.0,0.0,1.0,1.0
2025-12-04,16169.51574304195,15948.279093549365,1,1,,,0.0,0.0,0.0,0.0,1.0,1.0
2025-12-05,15822.316074157672,15675.479353711718,1,1,,,0.0,0.0,0.0,0.0,1.0,1.0
2025-12-08,16221.595279479938,15989.19872932207,1,1,,,0.0,0.0,0.0,0.0,1.0,1.0
2025-12-09,16147.816074157672,15931.229353711718,1,1,,,0.0,0.0,0.0,0.0,1.0,1.0
2025-12-10,16225.936206603961,15992.60945777666,1,1,,,0.0,0.0,0.0,0.0,1.0,1.0
2025-12-11,16113.095279479938,15903.94872932207,1,1,,,0.0,0.0,0.0,0.0,1.0,1.0
2025-12-12,16304.05633905025,16053.989561841601,1,1,,,0.0,0.0,0.0,0.0,1.0,1.0
2025-12-15,16364.816074157672,16101.729353711718,1,1,,,0.0,0.0,0.0,0.0,1.0,1.0
2025-12-16,16143.476802612262,15927.819926068896,1,1,,,0.0,0.0,0.0,0.0,1.0,1.0
2025-12-17,16000.256007934528,15815.289301679248,1,1,,,0.0,0.0,0.0,0.0,1.0,1.0
2025-12-18,16165.17647149654,15944.869665906543,1,1,,,0.0,0.0,0.0,0.0,1.0,1.0
2025-12-19,16156.496272827106,15938.04950980913,1,1,,,0.0,0.0,0.0,0.0,1.0,1.0
2025-12-22,16069.695941711383,15869.849249646777,1,1,,,0.0,0.0,0.0,0.0,1.0,1.0
2025-12-23,16278.01574304195,16033.529093549365,1,1,,,0.0,0.0,0.0,0.0,1.0,1.0
2025-12-26,16373.496272827106,16108.54950980913,1,1,,,0.0,0.0,0.0,0.0,1.0,1.0
2025-12-29,16503.695941711383,16210.849249646777,1,1,,,0.0,0.0,0.0,0.0,1.0,1.0
2025-12-30,16538.416736389117,16238.129874036425,1,1,,,0.0,0.0,0.0,0.0,1.0,1.0
2026-01-02,16360.476802612262,16098.319926068896,1,1,,,0.0,0.0,0.0,0.0,1.0,1.0
2026-01-05,16412.55633905025,16139.239561841601,1,1,,,0.0,0.0,0.0,0.0,1.0,1.0
2026-01-06,16516.715411926227,16221.078833387011,1,1,,,0.0,0.0,0.0,0.0,1.0,1.0
2026-01-07,16212.916736389117,15982.379874036425,1,1,,,0.0,0.0,0.0,0.0,1.0,1.0
2026-01-08,15887.416736389117,15726.629874036425,1,1,,,0.0,0.0,0.0,0.0,1.0,1.0
2026-01-09,16034.976802612262,15842.569926068896,1,1,,,0.0,0.0,0.0,0.0,1.0,1.0
2026-01-12,15952.51574304195,15777.779093549365,1,1,,,0.0,0.0,0.0,0.0,1.0,1.0
2026-01-13,15904.775478149371,15740.268885419482,1,1,,,0.0,0.0,0.0,0.0,1.0,1.0
2026-01-14,15961.195941711383,15784.599249646777,1,1,,,0.0,0.0,0.0,0.0,1.0,1.0
2026-01-15,16000.256007934528,15815.289301679248,1,1,,,0.0,0.0,0.0,0.0,1.0,1.0
2026-01-16,16091.39561059566,15886.898989484424,1,1,,,0.0,0.0,0.0,0.0,1.0,1.0
2026-01-19,16160.835544372516,15941.458937451953,1,1,,,0.0,0.0,0.0,0.0,1.0,1.0
2026-01-20,16295.376140380817,16047.16940574419,1,1,,,0.0,0.0,0.0,0.0,1.0,1.0
2026-01-21,16555.77547814937,16251.768885419482,1,1,,,0.0,0.0,0.0,0.0,1.0,1.0
2026-01-22,17033.17647149654,16626.869665906543,1,1,,,0.0,0.0,0.0,0.0,1.0,1.0
2026-01-23,16902.976802612262,16524.569926068896,1,1,,,0.0,0.0,0.0,0.0,1.0,1.0
2026-01-26,16937.695941711383,16551.849249646777,1,1,,,0.0,0.0,0.0,0.0,1.0,1.0
2026-01-27,16894.29660394283,16517.749769971484,1,1,,,0.0,0.0,0.0,0.0,1.0,1.0
2026-01-28,17245.835544372516,16793.958937451953,1,1,,,0.0,0.0,0.0,0.0,1.0,1.0
2026-01-29,17141.67647149654,16712.119665906543,1,1,,,0.0,0.0,0.0,0.0,1.0,1.0
2026-01-30,17041.856670165973,16633.689822003955,1,1,,,0.0,0.0,0.0,0.0,1.0,1.0
2026-02-02,17384.715411926227,16903.07883338701,1,1,,,0.0,0.0,0.0,0.0,1.0,1.0
2026-02-03,17467.17647149654,16967.869665906543,1,1,,,0.0,0.0,0.0,0.0,1.0,1.0
2026-02-04,16972.416736389117,16579.129874036425,1,1,,,0.0,0.0,0.0,0.0,1.0,1.0
2026-02-05,16998.455676818805,16599.589041516894,1,1,,,0.0,0.0,0.0,0.0,1.0,1.0
2026-02-06,17007.13587548824,16606.409197614306,1,1,,,0.0,0.0,0.0,0.0,1.0,1.0
2026-02-09,17063.55633905025,16650.7395618416,1,1,,,0.0,0.0,0.0,0.0,1.0,1.0
2026-02-10,17436.79660394283,16943.999769971484,1,1,,,0.0,0.0,0.0,0.0,1.0,1.0
2026-02-11,17753.616405273395,17192.929613874072,1,1,,,0.0,0.0,0.0,0.0,1.0,1.0
2026-02-12,17237.155345703082,16787.13878135454,1,1,,,0.0,0.0,0.0,0.0,1.0,1.0
2026-02-13,16658.550179711383,16332.520436646777,1,1,,,0.0,0.0,1131.354238,888.9211869999999,1.0,1.0
2026-02-18,16515.331040612262,16219.991113068896,1,1,,,0.0,0.0,0.0,0.0,1.0,1.0
2026-02-19,16554.391106835406,16250.681165101367,1,1,,,0.0,0.0,0.0,0.0,1.0,1.0
2026-02-20,16758.36998104195,16410.950280549365,1,1,,,0.0,0.0,0.0,0.0,1.0,1.0
2026-02-23,16784.41057705025,16431.4107488416,1,1,,,0.0,0.0,0.0,0.0,1.0,1.0
2026-02-24,17101.230378380817,16680.34059274419,1,1,,,0.0,0.0,0.0,0.0,1.0,1.0
2026-02-25,17175.009583703082,16738.30996835454,1,1,,,0.0,0.0,0.0,0.0,1.0,1.0
2026-02-26,17218.41057705025,16772.4107488416,1,1,,,0.0,0.0,0.0,0.0,1.0,1.0
2026-02-27,17031.79044460396,16625.78064477666,1,1,,,0.0,0.0,0.0,0.0,1.0,1.0
2026-03-02,17062.170312157672,16649.65054071172,1,1,,,0.0,0.0,0.0,0.0,1.0,1.0
2026-03-03,16910.270974389117,16530.301061036425,1,1,,,0.0,0.0,0.0,0.0,1.0,1.0
2026-03-04,16897.24984859566,16520.070176484423,1,1,,,0.0,0.0,0.0,0.0,1.0,1.0
2026-03-05,16615.15084194283,16298.420956971484,1,1,,,0.0,0.0,0.0,0.0,1.0,1.0
2026-03-06,16823.470643273395,16462.100800874072,1,1,,,0.0,0.0,0.0,0.0,1.0,1.0
2026-03-09,16780.069649926227,16428.00002038701,1,1,,,0.0,0.0,0.0,0.0,1.0,1.0
2026-03-10,16958.009583703082,16567.80996835454,1,1,,,0.0,0.0,0.0,0.0,1.0,1.0
2026-03-11,17023.110245934527,16618.960488679248,1,1,,,0.0,0.0,0.0,0.0,1.0,1.0
2026-03-12,16897.24984859566,16520.070176484423,1,1,,,0.0,0.0,0.0,0.0,1.0,1.0
2026-03-13,17192.36998104195,16751.950280549365,1,1,,,0.0,0.0,0.0,0.0,1.0,1.0
2026-03-16,17118.590775719684,16693.980904939013,1,1,,,0.0,0.0,0.0,0.0,1.0,1.0
2026-03-17,17135.949517479938,16707.61991632207,1,1,,,0.0,0.0,0.0,0.0,1.0,1.0
2026-03-18,16962.350510827106,16571.22069680913,1,1,,,0.0,0.0,0.0,0.0,1.0,1.0
2026-03-19,17023.110245934527,16618.960488679248,1,1,,,0.0,0.0,0.0,0.0,1.0,1.0
2026-03-20,16775.730378380817,16424.59059274419,1,1,,,0.0,0.0,0.0,0.0,1.0,1.0
2026-03-23,17018.770974389117,16615.551061036425,1,1,,,0.0,0.0,0.0,0.0,1.0,1.0
2026-03-24,16936.309914818805,16550.760228516894,1,1,,,0.0,0.0,0.0,0.0,1.0,1.0
2026-03-25,17096.891106835406,16676.931165101367,1,1,,,0.0,0.0,0.0,0.0,1.0,1.0
2026-03-26,17014.430047265094,16612.140332581836,1,1,,,0.0,0.0,0.0,0.0,1.0,1.0
2026-03-27,16910.270974389117,16530.301061036425,1,1,,,0.0,0.0,0.0,0.0,1.0,1.0
2026-03-30,16866.86998104195,16496.200280549365,1,1,,,0.0,0.0,0.0,0.0,1.0,1.0
2026-03-31,17088.210908165973,16670.111009003955,1,1,,,0.0,0.0,0.0,0.0,1.0,1.0
2026-04-01,17214.069649926227,16769.00002038701,1,1,,,0.0,0.0,0.0,0.0,1.0,1.0
2026-04-02,17357.29044460396,16881.53064477666,1,1,,,0.0,0.0,0.0,0.0,1.0,1.0
2026-04-06,17361.62971614937,16884.940072419482,1,1,,,0.0,0.0,0.0,0.0,1.0,1.0
2026-04-07,17374.65084194283,16895.170956971484,1,1,,,0.0,0.0,0.0,0.0,1.0,1.0
2026-04-08,17539.569649926227,17024.75002038701,1,1,,,0.0,0.0,0.0,0.0,1.0,1.0
2026-04-09,17561.270974389117,17041.801061036425,1,1,,,0.0,0.0,0.0,0.0,1.0,1.0
2026-04-10,17782.610245934527,17215.710488679248,1,1,,,0.0,0.0,0.0,0.0,1.0,1.0
2026-04-13,17626.36998104195,17092.950280549365,1,1,,,0.0,0.0,0.0,0.0,1.0,1.0
2026-04-14,17487.49011348824,16983.830384614306,1,1,,,0.0,0.0,0.0,0.0,1.0,1.0
2026-04-15,17192.36998104195,16751.950280549365,1,1,,,0.0,0.0,0.0,0.0,1.0,1.0
2026-04-16,17175.009583703082,16738.30996835454,1,1,,,0.0,0.0,0.0,0.0,1.0,1.0
2026-04-17,17135.949517479938,16707.61991632207,1,1,,,0.0,0.0,0.0,0.0,1.0,1.0
2026-04-20,17292.189782372516,16830.380124451953,1,1,,,0.0,0.0,0.0,0.0,1.0,1.0
2026-04-22,17040.470643273395,16632.600800874072,1,1,,,0.0,0.0,0.0,0.0,1.0,1.0
2026-04-23,16853.850510827106,16485.97069680913,1,1,,,0.0,0.0,0.0,0.0,1.0,1.0
2026-04-24,16862.53070949654,16492.790852906543,1,1,,,0.0,0.0,0.0,0.0,1.0,1.0
2026-04-27,16714.970643273395,16376.850800874072,1,1,,,0.0,0.0,0.0,0.0,1.0,1.0
2026-04-28,16754.03070949654,16407.540852906543,1,1,,,0.0,0.0,0.0,0.0,1.0,1.0
2026-04-29,16628.170312157672,16308.650540711718,1,1,,,0.0,0.0,0.0,0.0,1.0,1.0
2026-04-30,16730.099016422366,16352.980904939013,0,1,SELL,,34.05296469497681,0.0,0.0,0.0,1.0,1.0
2026-05-04,16730.099016422366,16342.750020387011,0,1,,,0.0,0.0,0.0,0.0,1.0,1.0
2026-05-05,16730.099016422366,16547.350800874072,0,1,,,0.0,0.0,0.0,0.0,1.0,1.0
2026-05-06,16730.099016422366,16676.931165101367,0,1,,,0.0,0.0,0.0,0.0,1.0,1.0
2026-05-07,16406.36871679502,16496.200280549365,1,1,BUY,,34.90744438934326,0.0,0.0,0.0,1.0,1.0
2026-05-08,16511.529300291113,16571.22069680913,1,1,,,0.0,0.0,0.0,0.0,1.0,1.0
2026-05-11,16406.36871679502,16496.200280549365,1,1,,,0.0,0.0,0.0,0.0,1.0,1.0
2026-05-12,16363.348643858008,16465.510228516894,1,1,,,0.0,0.0,0.0,0.0,1.0,1.0
2026-05-13,16277.308497983984,16404.130124451953,1,1,,,0.0,0.0,0.0,0.0,1.0,1.0
2026-05-14,16492.408862669043,16557.580384614306,1,1,,,0.0,0.0,0.0,0.0,1.0,1.0
2026-05-15,16320.328570920996,16434.820176484423,1,1,,,0.0,0.0,0.0,0.0,1.0,1.0
2026-05-18,16320.328570920996,16434.820176484423,1,1,,,0.0,0.0,0.0,0.0,1.0,1.0
2026-05-19,16219.949008543066,16363.210488679248,1,1,,,0.0,0.0,0.0,0.0,1.0,1.0
2026-05-20,16602.348643858008,16636.010228516894,1,1,,,0.0,0.0,0.0,0.0,1.0,1.0
2026-05-21,16616.689883787207,16646.241113068896,1,1,,,0.0,0.0,0.0,0.0,1.0,1.0
2026-05-22,16487.62966497617,16554.170956971484,1,1,,,0.0,0.0,0.0,0.0,1.0,1.0
2026-05-25,16559.328570920996,16605.320176484423,1,1,,,0.0,0.0,0.0,0.0,1.0,1.0
2026-05-26,16607.12966497617,16639.420956971484,1,1,,,0.0,0.0,0.0,0.0,1.0,1.0
2026-05-27,16674.049373228125,16687.1607488416,1,1,,,0.0,0.0,0.0,0.0,1.0,1.0
2026-05-28,16540.20995672422,16591.681165101367,1,1,,,0.0,0.0,0.0,0.0,1.0,1.0
2026-05-29,16932.169810850195,16871.301061036425,1,1,,,0.0,0.0,0.0,0.0,1.0,1.0
2026-06-01,16755.308497983984,16745.130124451953,1,1,,,0.0,0.0,0.0,0.0,1.0,1.0
2026-06-02,16803.10959203916,16779.230904939013,1,1,,,0.0,0.0,0.0,0.0,1.0,1.0
2026-06-03,16760.08951910215,16748.540852906543,1,1,,,0.0,0.0,0.0,0.0,1.0,1.0
2026-06-05,16927.38878973203,16867.890332581836,1,1,,,0.0,0.0,0.0,0.0,1.0,1.0
2026-06-08,17156.828570920996,17031.570176484423,1,1,,,0.0,0.0,0.0,0.0,1.0,1.0
2026-06-09,17338.469081480078,17161.15054071172,1,1,,,0.0,0.0,0.0,0.0,1.0,1.0
2026-06-10,17520.10959203916,17290.730904939013,1,1,,,0.0,0.0,0.0,0.0,1.0,1.0
2026-06-11,18079.36871679502,17689.700280549365,1,1,,,0.0,0.0,0.0,0.0,1.0,1.0
2026-06-12,18112.828570920996,17713.570176484423,1,1,,,0.0,0.0,0.0,0.0,1.0,1.0
2026-06-15,18069.808497983984,17682.880124451953,1,1,,,0.0,0.0,0.0,0.0,1.0,1.0
2026-06-16,18265.788425046972,17822.690072419482,1,1,,,0.0,0.0,0.0,0.0,1.0,1.0
2026-06-17,18796.36871679502,18201.200280549365,1,1,,,0.0,0.0,0.0,0.0,1.0,1.0
2026-06-18,18863.288425046972,18248.940072419482,1,1,,,0.0,0.0,0.0,0.0,1.0,1.0
2026-06-19,18605.169810850195,18064.801061036425,1,1,,,0.0,0.0,0.0,0.0,1.0,1.0
2026-06-22,18476.10959203916,17972.730904939013,1,1,,,0.0,0.0,0.0,0.0,1.0,1.0
2026-06-23,18304.029300291113,17849.97069680913,1,1,,,0.0,0.0,0.0,0.0,1.0,1.0
2026-06-24,18500.0092273541,17989.78064477666,1,1,,,0.0,0.0,0.0,0.0,1.0,1.0
2026-06-25,18590.828570920996,18054.570176484423,1,1,,,0.0,0.0,0.0,0.0,1.0,1.0
2026-06-26,18734.228206235937,18156.86991632207,1,1,,,0.0,0.0,0.0,0.0,1.0,1.0
2026-06-29,18810.70995672422,18211.431165101367,1,1,,,0.0,0.0,0.0,0.0,1.0,1.0
2026-06-30,18734.228206235937,18156.86991632207,1,1,,,0.0,0.0,0.0,0.0,1.0,1.0
2026-07-01,18237.10959203916,17802.230904939013,1,1,,,0.0,0.0,0.0,0.0,1.0,1.0
2026-07-02,18495.228206235937,17986.36991632207,1,1,,,0.0,0.0,0.0,0.0,1.0,1.0
2026-07-03,18485.669810850195,17979.551061036425,1,1,,,0.0,0.0,0.0,0.0,1.0,1.0
2026-07-06,18514.348643858008,18000.010228516894,1,1,,,0.0,0.0,0.0,0.0,1.0,1.0
2026-07-07,18437.86871679502,17945.450280549365,1,1,,,0.0,0.0,0.0,0.0,1.0,1.0
2026-07-08,18533.469081480078,18013.65054071172,1,1,,,0.0,0.0,0.0,0.0,1.0,1.0
2026-07-09,18786.808497983984,18194.380124451953,1,1,,,0.0,0.0,0.0,0.0,1.0,1.0
2026-07-10,19298.26835210996,18559.25002038701,1,1,,,0.0,0.0,0.0,0.0,1.0,1.0
2026-07-13,19264.808497983984,18535.380124451953,1,1,,,0.0,0.0,0.0,0.0,1.0,1.0
2026-07-14,19317.38878973203,18572.890332581836,1,1,,,0.0,0.0,0.0,0.0,1.0,1.0
2026-07-15,19470.348643858008,18682.010228516894,1,1,,,0.0,0.0,0.0,0.0,1.0,1.0
2026-07-16,19695.0092273541,18842.28064477666,1,1,,,0.0,0.0,0.0,0.0,1.0,1.0
2026-07-17,19666.328570920996,18821.820176484423,1,1,,,0.0,0.0,0.0,0.0,1.0,1.0
