date,strategy_equity,benchmark_equity,strategy_position,benchmark_position,strategy_trade,benchmark_trade,strategy_trade_price,benchmark_trade_price,strategy_dividend_cash,benchmark_dividend_cash,strategy_split_ratio,benchmark_split_ratio
2023-11-28,10000.0,9993.90611280591,0,1,,BUY,0.0,31.765874999999998,0.0,0.0,1.0,1.0
2023-11-29,9819.06903100467,9880.86652006299,1,1,BUY,,31.96597576332092,0.0,0.0,0.0,1.0,1.0
2023-11-30,9772.268554930452,9833.766040937013,1,1,,,0.0,0.0,0.0,0.0,1.0,1.0
2023-12-01,9647.468673949006,9708.166160718507,1,1,,,0.0,0.0,0.0,0.0,1.0,1.0
2023-12-04,9622.508697752717,9683.046184674806,1,1,,,0.0,0.0,0.0,0.0,1.0,1.0
2023-12-05,9585.06903100467,9645.36652006299,1,1,,,0.0,0.0,0.0,0.0,1.0,1.0
2023-12-06,9578.828888182405,9639.086376325196,1,1,,,0.0,0.0,0.0,0.0,1.0,1.0
2023-12-07,9709.868911986116,9770.966400281495,1,1,,,0.0,0.0,0.0,0.0,1.0,1.0
2023-12-08,9712.988983397248,9774.106472150392,1,1,,,0.0,0.0,0.0,0.0,1.0,1.0
2023-12-11,9734.828888182405,9796.086376325196,1,1,,,0.0,0.0,0.0,0.0,1.0,1.0
2023-12-12,9744.18850732303,9805.505993024415,1,1,,,0.0,0.0,0.0,0.0,1.0,1.0
2023-12-13,9694.268554930452,9755.266040937013,1,1,,,0.0,0.0,0.0,0.0,1.0,1.0
2023-12-14,9878.348602537873,9940.52608884961,1,1,,,0.0,0.0,0.0,0.0,1.0,1.0
2023-12-15,10012.508697752717,10075.546184674806,1,1,,,0.0,0.0,0.0,0.0,1.0,1.0
2023-12-18,10156.028412108186,10219.98589719922,1,1,,,0.0,0.0,0.0,0.0,1.0,1.0
2023-12-19,10418.108459715608,10483.745945111817,1,1,,,0.0,0.0,0.0,0.0,1.0,1.0
2023-12-20,10349.46926904178,10414.666759625978,1,1,,,0.0,0.0,0.0,0.0,1.0,1.0
2023-12-21,10349.46926904178,10414.666759625978,1,1,,,0.0,0.0,0.0,0.0,1.0,1.0
2023-12-22,10414.988983397248,10480.606472150392,1,1,,,0.0,0.0,0.0,0.0,1.0,1.0
2023-12-26,10492.988983397248,10559.106472150392,1,1,,,0.0,0.0,0.0,0.0,1.0,1.0
2023-12-27,10421.229126219514,10486.886615888185,1,1,,,0.0,0.0,0.0,0.0,1.0,1.0
2023-12-28,10505.46926904178,10571.666759625978,1,1,,,0.0,0.0,0.0,0.0,1.0,1.0
2024-01-02,10580.348602537873,10647.02608884961,1,1,,,0.0,0.0,0.0,0.0,1.0,1.0
2024-01-03,10533.549316649202,10599.926807538575,1,1,,,0.0,0.0,0.0,0.0,1.0,1.0
2024-01-04,10608.428650145295,10675.286136762208,1,1,,,0.0,0.0,0.0,0.0,1.0,1.0
2024-01-05,10514.828888182405,10581.086376325196,1,1,,,0.0,0.0,0.0,0.0,1.0,1.0
2024-01-08,10464.908935789827,10530.846424237794,1,1,,,0.0,0.0,0.0,0.0,1.0,1.0
2024-01-09,10427.46926904178,10493.166759625978,1,1,,,0.0,0.0,0.0,0.0,1.0,1.0
2024-01-10,10361.948364500764,10427.225849286622,1,1,,,0.0,0.0,0.0,0.0,1.0,1.0
2024-01-11,10390.028412108186,10455.48589719922,1,1,,,0.0,0.0,0.0,0.0,1.0,1.0
2024-01-12,10408.748840574983,10474.326328412599,1,1,,,0.0,0.0,0.0,0.0,1.0,1.0
2024-01-15,10517.948364500764,10584.225849286622,1,1,,,0.0,0.0,0.0,0.0,1.0,1.0
2024-01-16,10452.428650145295,10518.286136762208,1,1,,,0.0,0.0,0.0,0.0,1.0,1.0
2024-01-17,10586.588745360139,10653.306232587403,1,1,,,0.0,0.0,0.0,0.0,1.0,1.0
2024-01-18,10733.229126219514,10800.886615888185,1,1,,,0.0,0.0,0.0,0.0,1.0,1.0
2024-01-19,10786.268554930452,10854.266040937013,1,1,,,0.0,0.0,0.0,0.0,1.0,1.0
2024-01-22,10811.229126219514,10879.386615888185,1,1,,,0.0,0.0,0.0,0.0,1.0,1.0
2024-01-23,10773.78826928592,10841.705753461427,1,1,,,0.0,0.0,0.0,0.0,1.0,1.0
2024-01-24,10689.549316649202,10756.926807538575,1,1,,,0.0,0.0,0.0,0.0,1.0,1.0
2024-01-25,10533.549316649202,10599.926807538575,1,1,,,0.0,0.0,0.0,0.0,1.0,1.0
2024-01-26,10530.428650145295,10596.786136762208,1,1,,,0.0,0.0,0.0,0.0,1.0,1.0
2024-01-29,10642.748840574983,10709.826328412599,1,1,,,0.0,0.0,0.0,0.0,1.0,1.0
2024-01-30,10561.629364256623,10628.186855451173,1,1,,,0.0,0.0,0.0,0.0,1.0,1.0
2024-01-31,10692.66879296756,10760.066280500001,1,1,,,0.0,0.0,0.0,0.0,1.0,1.0
2024-02-01,10711.389221434358,10778.90671171338,1,1,,,0.0,0.0,0.0,0.0,1.0,1.0
2024-02-02,10642.748840574983,10709.826328412599,1,1,,,0.0,0.0,0.0,0.0,1.0,1.0
2024-02-05,10786.268554930452,10854.266040937013,1,1,,,0.0,0.0,0.0,0.0,1.0,1.0
2024-02-06,11082.66879296756,11152.566280500001,1,1,,,0.0,0.0,0.0,0.0,1.0,1.0
2024-02-07,11188.748840574983,11259.326328412599,1,1,,,0.0,0.0,0.0,0.0,1.0,1.0
2024-02-08,10770.66879296756,10838.566280500001,1,1,,,0.0,0.0,0.0,0.0,1.0,1.0
2024-02-09,10630.671246612092,10697.671313975587,1,1,,,0.0,0.0,393.522168,396.04474600000003,1.0,1.0
2024-02-14,10674.351056182404,10741.631122325196,1,1,,,0.0,0.0,0.0,0.0,1.0,1.0
2024-02-15,10699.31043728592,10766.750499461426,1,1,,,0.0,0.0,0.0,0.0,1.0,1.0
2024-02-16,10590.110913360139,10656.850978587403,1,1,,,0.0,0.0,0.0,0.0,1.0,1.0
2024-02-19,10624.431103789826,10691.391170237794,1,1,,,0.0,0.0,0.0,0.0,1.0,1.0
2024-02-20,10730.511151397248,10798.151218150391,1,1,,,0.0,0.0,0.0,0.0,1.0,1.0
2024-02-21,10664.99143704178,10732.211505625977,1,1,,,0.0,0.0,0.0,0.0,1.0,1.0
2024-02-22,10808.511151397248,10876.651218150391,1,1,,,0.0,0.0,0.0,0.0,1.0,1.0
2024-02-23,10711.790722930451,10779.310786937012,1,1,,,0.0,0.0,0.0,0.0,1.0,1.0
2024-02-26,10718.030865752717,10785.590930674805,1,1,,,0.0,0.0,0.0,0.0,1.0,1.0
2024-02-27,10761.71067532303,10829.550739024415,1,1,,,0.0,0.0,0.0,0.0,1.0,1.0
2024-02-28,10867.790722930451,10936.310786937012,1,1,,,0.0,0.0,0.0,0.0,1.0,1.0
2024-02-29,10802.271008574982,10870.371074412598,1,1,,,0.0,0.0,0.0,0.0,1.0,1.0
2024-03-01,10671.230389678498,10738.490451548829,1,1,,,0.0,0.0,0.0,0.0,1.0,1.0
2024-03-04,10668.110913360139,10735.350978587403,1,1,,,0.0,0.0,0.0,0.0,1.0,1.0
2024-03-05,10652.511151397248,10719.651218150391,1,1,,,0.0,0.0,0.0,0.0,1.0,1.0
2024-03-06,10602.59119900467,10669.411266062989,1,1,,,0.0,0.0,0.0,0.0,1.0,1.0
2024-03-07,10664.99143704178,10732.211505625977,1,1,,,0.0,0.0,0.0,0.0,1.0,1.0
2024-03-08,10630.671246612092,10697.671313975587,1,1,,,0.0,0.0,0.0,0.0,1.0,1.0
2024-03-11,10643.151532256623,10710.231601451173,1,1,,,0.0,0.0,0.0,0.0,1.0,1.0
2024-03-12,10677.470532500764,10744.770595286622,1,1,,,0.0,0.0,0.0,0.0,1.0,1.0
2024-03-13,10658.751294219514,10725.931361888184,1,1,,,0.0,0.0,0.0,0.0,1.0,1.0
2024-03-14,10730.511151397248,10798.151218150391,1,1,,,0.0,0.0,0.0,0.0,1.0,1.0
2024-03-15,10780.431103789826,10848.391170237794,1,1,,,0.0,0.0,0.0,0.0,1.0,1.0
2024-03-18,10777.31043728592,10845.250499461426,1,1,,,0.0,0.0,0.0,0.0,1.0,1.0
2024-03-19,10661.870770537873,10729.07083484961,1,1,,,0.0,0.0,0.0,0.0,1.0,1.0
2024-03-20,10652.511151397248,10719.651218150391,1,1,,,0.0,0.0,0.0,0.0,1.0,1.0
2024-03-21,10418.511151397248,10484.151218150391,1,1,,,0.0,0.0,0.0,0.0,1.0,1.0
2024-03-22,10490.271008574982,10556.371074412598,1,1,,,0.0,0.0,0.0,0.0,1.0,1.0
2024-03-25,10368.59119900467,10433.911266062989,1,1,,,0.0,0.0,0.0,0.0,1.0,1.0
2024-03-26,10421.630627715607,10487.290691111817,1,1,,,0.0,0.0,0.0,0.0,1.0,1.0
2024-03-27,10605.71067532303,10672.550739024415,1,1,,,0.0,0.0,0.0,0.0,1.0,1.0
2024-03-28,10546.431103789826,10612.891170237794,1,1,,,0.0,0.0,0.0,0.0,1.0,1.0
2024-04-01,10596.351056182404,10663.131122325196,1,1,,,0.0,0.0,0.0,0.0,1.0,1.0
2024-04-02,10593.230389678498,10659.990451548829,1,1,,,0.0,0.0,0.0,0.0,1.0,1.0
2024-04-03,10521.470532500764,10587.770595286622,1,1,,,0.0,0.0,0.0,0.0,1.0,1.0
2024-04-04,10590.110913360139,10656.850978587403,1,1,,,0.0,0.0,0.0,0.0,1.0,1.0
2024-04-05,10683.71067532303,10751.050739024415,1,1,,,0.0,0.0,0.0,0.0,1.0,1.0
2024-04-08,10752.351056182404,10820.131122325196,1,1,,,0.0,0.0,0.0,0.0,1.0,1.0
2024-04-09,10827.230389678498,10895.490451548829,1,1,,,0.0,0.0,0.0,0.0,1.0,1.0
2024-04-10,10718.030865752717,10785.590930674805,1,1,,,0.0,0.0,0.0,0.0,1.0,1.0
2024-04-11,10814.751294219514,10882.931361888184,1,1,,,0.0,0.0,0.0,0.0,1.0,1.0
2024-04-12,10686.831341826935,10754.191409800782,1,1,,,0.0,0.0,0.0,0.0,1.0,1.0
2024-04-15,10699.31043728592,10766.750499461426,1,1,,,0.0,0.0,0.0,0.0,1.0,1.0
2024-04-16,10643.151532256623,10710.231601451173,1,1,,,0.0,0.0,0.0,0.0,1.0,1.0
2024-04-17,10686.831341826935,10754.191409800782,1,1,,,0.0,0.0,0.0,0.0,1.0,1.0
2024-04-18,10586.99143704178,10653.711505625977,1,1,,,0.0,0.0,0.0,0.0,1.0,1.0
2024-04-19,10683.71067532303,10751.050739024415,1,1,,,0.0,0.0,0.0,0.0,1.0,1.0
2024-04-22,10677.470532500764,10744.770595286622,1,1,,,0.0,0.0,0.0,0.0,1.0,1.0
2024-04-23,10540.19096096756,10606.6110265,1,1,,,0.0,0.0,0.0,0.0,1.0,1.0
2024-04-24,10415.390484893342,10481.010547374024,1,1,,,0.0,0.0,0.0,0.0,1.0,1.0
2024-04-25,10381.070889556428,10446.470954631104,1,1,,,0.0,0.0,0.0,0.0,1.0,1.0
2024-04-26,10412.271008574982,10477.871074412598,1,1,,,0.0,0.0,0.0,0.0,1.0,1.0
2024-04-29,10474.671246612092,10540.671313975587,1,1,,,0.0,0.0,0.0,0.0,1.0,1.0
2024-04-30,10446.59119900467,10512.411266062989,1,1,,,0.0,0.0,0.0,0.0,1.0,1.0
2024-05-02,10515.230389678498,10581.490451548829,1,1,,,0.0,0.0,0.0,0.0,1.0,1.0
2024-05-03,10646.271008574982,10713.371074412598,1,1,,,0.0,0.0,0.0,0.0,1.0,1.0
2024-05-06,10777.31043728592,10845.250499461426,1,1,,,0.0,0.0,0.0,0.0,1.0,1.0
2024-05-07,10633.790722930451,10700.810786937012,1,1,,,0.0,0.0,0.0,0.0,1.0,1.0
2024-05-08,10577.630627715607,10644.290691111817,1,1,,,0.0,0.0,0.0,0.0,1.0,1.0
2024-05-09,10577.630627715607,10644.290691111817,1,1,,,0.0,0.0,0.0,0.0,1.0,1.0
2024-05-10,10736.751294219514,10804.431361888184,1,1,,,0.0,0.0,0.0,0.0,1.0,1.0
2024-05-13,10883.390484893342,10952.010547374024,1,1,,,0.0,0.0,0.0,0.0,1.0,1.0
2024-05-14,11008.19096096756,11077.6110265,1,1,,,0.0,0.0,0.0,0.0,1.0,1.0
2024-05-15,11083.071484649201,11152.971553538575,1,1,,,0.0,0.0,0.0,0.0,1.0,1.0
2024-05-16,11148.59119900467,11218.911266062989,1,1,,,0.0,0.0,0.0,0.0,1.0,1.0
2024-05-17,11061.230389678498,11130.990451548829,1,1,,,0.0,0.0,0.0,0.0,1.0,1.0
2024-05-20,10914.59119900467,10983.411266062989,1,1,,,0.0,0.0,0.0,0.0,1.0,1.0
2024-05-21,10986.351056182404,11055.631122325196,1,1,,,0.0,0.0,0.0,0.0,1.0,1.0
2024-05-22,10808.511151397248,10876.651218150391,1,1,,,0.0,0.0,0.0,0.0,1.0,1.0
2024-05-23,10764.831341826935,10832.691409800782,1,1,,,0.0,0.0,0.0,0.0,1.0,1.0
2024-05-24,10599.470532500764,10666.270595286622,1,1,,,0.0,0.0,0.0,0.0,1.0,1.0
2024-05-27,10652.511151397248,10719.651218150391,1,1,,,0.0,0.0,0.0,0.0,1.0,1.0
2024-05-28,10512.110913360139,10578.350978587403,1,1,,,0.0,0.0,0.0,0.0,1.0,1.0
2024-05-29,10571.390484893342,10638.010547374024,1,1,,,0.0,0.0,0.0,0.0,1.0,1.0
2024-05-31,10477.790722930451,10543.810786937012,1,1,,,0.0,0.0,0.0,0.0,1.0,1.0
2024-06-03,10440.351056182404,10506.131122325196,1,1,,,0.0,0.0,0.0,0.0,1.0,1.0
2024-06-04,10568.271008574982,10634.871074412598,1,1,,,0.0,0.0,0.0,0.0,1.0,1.0
2024-06-05,10627.550580108185,10694.53064319922,1,1,,,0.0,0.0,0.0,0.0,1.0,1.0
2024-06-06,10680.59119900467,10747.911266062989,1,1,,,0.0,0.0,0.0,0.0,1.0,1.0
2024-06-07,10599.470532500764,10666.270595286622,1,1,,,0.0,0.0,0.0,0.0,1.0,1.0
2024-06-10,10577.630627715607,10644.290691111817,1,1,,,0.0,0.0,0.0,0.0,1.0,1.0
2024-06-11,10627.550580108185,10694.53064319922,1,1,,,0.0,0.0,0.0,0.0,1.0,1.0
2024-06-12,10530.831341826935,10597.191409800782,1,1,,,0.0,0.0,0.0,0.0,1.0,1.0
2024-06-13,10543.31043728592,10609.750499461426,1,1,,,0.0,0.0,0.0,0.0,1.0,1.0
2024-06-14,10527.71067532303,10594.050739024415,1,1,,,0.0,0.0,0.0,0.0,1.0,1.0
2024-06-17,10505.870770537873,10572.07083484961,1,1,,,0.0,0.0,0.0,0.0,1.0,1.0
2024-06-18,10524.59119900467,10590.911266062989,1,1,,,0.0,0.0,0.0,0.0,1.0,1.0
2024-06-19,10562.030865752717,10628.590930674805,1,1,,,0.0,0.0,0.0,0.0,1.0,1.0
2024-06-20,10605.71067532303,10672.550739024415,1,1,,,0.0,0.0,0.0,0.0,1.0,1.0
2024-06-21,10664.99143704178,10732.211505625977,1,1,,,0.0,0.0,0.0,0.0,1.0,1.0
2024-06-24,10892.751294219514,10961.431361888184,1,1,,,0.0,0.0,0.0,0.0,1.0,1.0
2024-06-25,10830.351056182404,10898.631122325196,1,1,,,0.0,0.0,0.0,0.0,1.0,1.0
2024-06-26,10680.59119900467,10747.911266062989,1,1,,,0.0,0.0,0.0,0.0,1.0,1.0
2024-06-27,10627.550580108185,10694.53064319922,1,1,,,0.0,0.0,0.0,0.0,1.0,1.0
2024-06-28,10674.351056182404,10741.631122325196,1,1,,,0.0,0.0,0.0,0.0,1.0,1.0
2024-07-01,10640.030865752717,10707.090930674805,1,1,,,0.0,0.0,0.0,0.0,1.0,1.0
2024-07-02,10643.151532256623,10710.231601451173,1,1,,,0.0,0.0,0.0,0.0,1.0,1.0
2024-07-03,10686.831341826935,10754.191409800782,1,1,,,0.0,0.0,0.0,0.0,1.0,1.0
2024-07-04,10746.110913360139,10813.850978587403,1,1,,,0.0,0.0,0.0,0.0,1.0,1.0
2024-07-05,10749.230389678498,10816.990451548829,1,1,,,0.0,0.0,0.0,0.0,1.0,1.0
2024-07-08,10755.470532500764,10823.270595286622,1,1,,,0.0,0.0,0.0,0.0,1.0,1.0
2024-07-09,10774.19096096756,10842.1110265,1,1,,,0.0,0.0,0.0,0.0,1.0,1.0
2024-07-10,10796.030865752717,10864.090930674805,1,1,,,0.0,0.0,0.0,0.0,1.0,1.0
2024-07-11,10867.790722930451,10936.310786937012,1,1,,,0.0,0.0,0.0,0.0,1.0,1.0
2024-07-12,10995.71067532303,11065.050739024415,1,1,,,0.0,0.0,0.0,0.0,1.0,1.0
2024-07-15,11020.671246612092,11090.171313975587,1,1,,,0.0,0.0,0.0,0.0,1.0,1.0
2024-07-16,11073.71067532303,11143.550739024415,1,1,,,0.0,0.0,0.0,0.0,1.0,1.0
2024-07-17,11154.831341826935,11225.191409800782,1,1,,,0.0,0.0,0.0,0.0,1.0,1.0
2024-07-18,11126.751294219514,11196.931361888184,1,1,,,0.0,0.0,0.0,0.0,1.0,1.0
2024-07-19,11039.390484893342,11109.010547374024,1,1,,,0.0,0.0,0.0,0.0,1.0,1.0
2024-07-22,11148.59119900467,11218.911266062989,1,1,,,0.0,0.0,0.0,0.0,1.0,1.0
2024-07-23,11058.110913360139,11127.850978587403,1,1,,,0.0,0.0,0.0,0.0,1.0,1.0
2024-07-24,11070.59119900467,11140.411266062989,1,1,,,0.0,0.0,0.0,0.0,1.0,1.0
2024-07-25,11039.390484893342,11109.010547374024,1,1,,,0.0,0.0,0.0,0.0,1.0,1.0
2024-07-26,11195.390484893342,11266.010547374024,1,1,,,0.0,0.0,0.0,0.0,1.0,1.0
2024-07-29,11220.351056182404,11291.131122325196,1,1,,,0.0,0.0,0.0,0.0,1.0,1.0
2024-07-30,11310.831341826935,11382.191409800782,1,1,,,0.0,0.0,0.0,0.0,1.0,1.0
2024-07-31,11373.230389678498,11444.990451548829,1,1,,,0.0,0.0,0.0,0.0,1.0,1.0
2024-08-01,11335.790722930451,11407.310786937012,1,1,,,0.0,0.0,0.0,0.0,1.0,1.0
2024-08-02,11288.99143704178,11360.211505625977,1,1,,,0.0,0.0,0.0,0.0,1.0,1.0
2024-08-05,11195.390484893342,11266.010547374024,1,1,,,0.0,0.0,0.0,0.0,1.0,1.0
2024-08-06,11288.99143704178,11360.211505625977,1,1,,,0.0,0.0,0.0,0.0,1.0,1.0
2024-08-07,11342.030865752717,11413.590930674805,1,1,,,0.0,0.0,0.0,0.0,1.0,1.0
2024-08-08,11675.870770537873,11749.57083484961,1,1,,,0.0,0.0,0.0,0.0,1.0,1.0
2024-08-09,11682.110913360139,11755.850978587403,1,1,,,0.0,0.0,0.0,0.0,1.0,1.0
2024-08-12,11834.99143704178,11909.711505625977,1,1,,,0.0,0.0,0.0,0.0,1.0,1.0
2024-08-13,11984.751294219514,12060.431361888184,1,1,,,0.0,0.0,0.0,0.0,1.0,1.0
2024-08-14,11930.903283125306,12160.911266062989,0,1,SELL,,37.03147423744202,0.0,0.0,0.0,1.0,1.0
2024-08-15,11930.903283125306,12116.95145771338,0,1,,,0.0,0.0,0.0,0.0,1.0,1.0
2024-08-16,11930.903283125306,12110.671313975587,0,1,,,0.0,0.0,0.0,0.0,1.0,1.0
2024-08-19,11930.903283125306,12158.056212937012,0,1,,,0.0,0.0,0.0,436.745426,1.0,1.0
2024-08-20,11930.903283125306,12158.056212937012,0,1,,,0.0,0.0,0.0,0.0,1.0,1.0
2024-08-21,11930.903283125306,12164.336356674805,0,1,,,0.0,0.0,0.0,0.0,1.0,1.0
2024-08-22,11930.903283125306,12126.656692062988,0,1,,,0.0,0.0,0.0,0.0,1.0,1.0
2024-08-23,11930.903283125306,12453.216979538574,0,1,,,0.0,0.0,0.0,0.0,1.0,1.0
2024-08-26,11930.903283125306,12343.31626084961,0,1,,,0.0,0.0,0.0,0.0,1.0,1.0
2024-08-27,11930.903283125306,12343.31626084961,0,1,,,0.0,0.0,0.0,0.0,1.0,1.0
2024-08-28,11930.903283125306,12271.096404587403,0,1,,,0.0,0.0,0.0,0.0,1.0,1.0
2024-08-29,11930.903283125306,12315.056212937012,0,1,,,0.0,0.0,0.0,0.0,1.0,1.0
2024-08-30,11930.903283125306,12371.576308762207,0,1,,,0.0,0.0,0.0,0.0,1.0,1.0
2024-09-02,11930.903283125306,12365.296165024414,0,1,,,0.0,0.0,0.0,0.0,1.0,1.0
2024-09-03,11930.903283125306,12418.676787888184,0,1,,,0.0,0.0,0.0,0.0,1.0,1.0
2024-09-04,11930.903283125306,12588.235877548828,0,1,,,0.0,0.0,0.0,0.0,1.0,1.0
2024-09-05,11930.903283125306,12440.656692062988,0,1,,,0.0,0.0,0.0,0.0,1.0,1.0
2024-09-06,11930.903283125306,12365.296165024414,0,1,,,0.0,0.0,0.0,0.0,1.0,1.0
2024-09-09,11930.903283125306,12343.31626084961,0,1,,,0.0,0.0,0.0,0.0,1.0,1.0
2024-09-10,11930.903283125306,12337.036117111817,0,1,,,0.0,0.0,0.0,0.0,1.0,1.0
2024-09-11,11930.903283125306,12267.956931625977,0,1,,,0.0,0.0,0.0,0.0,1.0,1.0
2024-09-12,11930.903283125306,12173.755973374024,0,1,,,0.0,0.0,0.0,0.0,1.0,1.0
2024-09-13,11930.903283125306,12202.016021286621,0,1,,,0.0,0.0,0.0,0.0,1.0,1.0
2024-09-16,11930.903283125306,12267.956931625977,0,1,,,0.0,0.0,0.0,0.0,1.0,1.0
2024-09-17,11930.903283125306,12129.796165024414,0,1,,,0.0,0.0,0.0,0.0,1.0,1.0
2024-09-18,11930.903283125306,12013.616500412598,0,1,,,0.0,0.0,0.0,0.0,1.0,1.0
2024-09-19,11930.903283125306,11941.39664415039,0,1,,,0.0,0.0,0.0,0.0,1.0,1.0
2024-09-20,11790.325193522705,11831.495925461426,1,1,BUY,,35.357670152664184,0.0,0.0,0.0,1.0,1.0
2024-09-23,11830.646116374268,11869.176787888184,1,1,,,0.0,0.0,0.0,0.0,1.0,1.0
2024-09-24,11928.085142253174,11960.235877548828,1,1,,,0.0,0.0,0.0,0.0,1.0,1.0
2024-09-25,11904.565244792237,11938.255973374024,1,1,,,0.0,0.0,0.0,0.0,1.0,1.0
2024-09-26,11944.8861676438,11975.936835800781,1,1,,,0.0,0.0,0.0,0.0,1.0,1.0
2024-09-27,11911.28539860083,11944.536117111817,1,1,,,0.0,0.0,0.0,0.0,1.0,1.0
2024-09-30,11954.96575748755,11985.3564525,1,1,,,0.0,0.0,0.0,0.0,1.0,1.0
2024-10-01,12038.96575748755,12063.8564525,1,1,,,0.0,0.0,0.0,0.0,1.0,1.0
2024-10-02,11941.525449870362,11972.796165024414,1,1,,,0.0,0.0,0.0,0.0,1.0,1.0
2024-10-03,11827.28539860083,11866.036117111817,1,1,,,0.0,0.0,0.0,0.0,1.0,1.0
2024-10-04,11813.846372721924,11853.477027451172,1,1,,,0.0,0.0,0.0,0.0,1.0,1.0
2024-10-07,11595.445860026612,11649.376548325195,1,1,,,0.0,0.0,0.0,0.0,1.0,1.0
2024-10-08,11551.765501139893,11608.556212937012,1,1,,,0.0,0.0,0.0,0.0,1.0,1.0
2024-10-09,11400.565244792237,11467.255973374024,1,1,,,0.0,0.0,0.0,0.0,1.0,1.0
2024-10-10,11372.142619673463,11464.116500412598,0,1,SELL,,33.83307347488404,0.0,0.0,0.0,1.0,1.0
2024-10-11,11347.132621839106,11470.39664415039,1,1,BUY,,33.86692347335815,0.0,0.0,0.0,1.0,1.0
2024-10-14,11383.98282630688,11504.936835800781,1,1,,,0.0,0.0,0.0,0.0,1.0,1.0
2024-10-15,11370.58251960522,11492.376548325195,1,1,,,0.0,0.0,0.0,0.0,1.0,1.0
2024-10-16,11407.432724072993,11526.916739975586,1,1,,,0.0,0.0,0.0,0.0,1.0,1.0
2024-10-17,11390.68297965771,11511.216979538574,1,1,,,0.0,0.0,0.0,0.0,1.0,1.0
2024-10-18,11333.732315137446,11457.836356674805,1,1,,,0.0,0.0,0.0,0.0,1.0,1.0
2024-10-21,11377.28267295605,11498.656692062988,1,1,,,0.0,0.0,0.0,0.0,1.0,1.0
2024-10-22,11507.932468488276,11621.116500412598,1,1,,,0.0,0.0,0.0,0.0,1.0,1.0
2024-10-23,11501.232315137446,11614.836356674805,1,1,,,0.0,0.0,0.0,0.0,1.0,1.0
2024-10-24,11514.632621839106,11627.39664415039,1,1,,,0.0,0.0,0.0,0.0,1.0,1.0
2024-10-25,11494.532161786616,11608.556212937012,1,1,,,0.0,0.0,0.0,0.0,1.0,1.0
2024-10-28,11521.332775189936,11633.676787888184,1,1,,,0.0,0.0,0.0,0.0,1.0,1.0
2024-10-29,11561.532417371332,11671.3564525,1,1,,,0.0,0.0,0.0,0.0,1.0,1.0
2024-10-30,11561.532417371332,11671.3564525,1,1,,,0.0,0.0,0.0,0.0,1.0,1.0
2024-10-31,11484.482570722163,11599.136596237793,1,1,,,0.0,0.0,0.0,0.0,1.0,1.0
2024-11-01,11487.832008435786,11602.276069199219,1,1,,,0.0,0.0,0.0,0.0,1.0,1.0
2024-11-04,11608.432212903559,11715.31626084961,1,1,,,0.0,0.0,0.0,0.0,1.0,1.0
2024-11-05,11765.882621839106,11862.89664415039,1,1,,,0.0,0.0,0.0,0.0,1.0,1.0
2024-11-06,11598.382621839106,11705.89664415039,1,1,,,0.0,0.0,0.0,0.0,1.0,1.0
2024-11-07,11662.032161786616,11765.556212937012,1,1,,,0.0,0.0,0.0,0.0,1.0,1.0
2024-11-08,11491.182724072993,11605.416739975586,1,1,,,0.0,0.0,0.0,0.0,1.0,1.0
2024-11-11,11461.03267295605,11577.156692062988,1,1,,,0.0,0.0,0.0,0.0,1.0,1.0
2024-11-12,11306.93297965771,11432.716979538574,1,1,,,0.0,0.0,0.0,0.0,1.0,1.0
2024-11-13,11239.932724072993,11369.916739975586,1,1,,,0.0,0.0,0.0,0.0,1.0,1.0
2024-11-14,11196.38236625439,11329.096404587403,1,1,,,0.0,0.0,0.0,0.0,1.0,1.0
2024-11-18,11236.582008435786,11366.776069199219,1,1,,,0.0,0.0,0.0,0.0,1.0,1.0
2024-11-19,11461.03267295605,11577.156692062988,1,1,,,0.0,0.0,0.0,0.0,1.0,1.0
2024-11-21,11219.832264020502,11351.076308762207,1,1,,,0.0,0.0,0.0,0.0,1.0,1.0
2024-11-22,11377.28267295605,11498.656692062988,1,1,,,0.0,0.0,0.0,0.0,1.0,1.0
2024-11-25,11417.482315137446,11536.336356674805,1,1,,,0.0,0.0,0.0,0.0,1.0,1.0
2024-11-26,11437.582775189936,11555.176787888184,1,1,,,0.0,0.0,0.0,0.0,1.0,1.0
2024-11-27,11263.382621839106,11391.89664415039,1,1,,,0.0,0.0,0.0,0.0,1.0,1.0
2024-11-28,11203.08251960522,11335.376548325195,1,1,,,0.0,0.0,0.0,0.0,1.0,1.0
2024-11-29,11236.582008435786,11366.776069199219,1,1,,,0.0,0.0,0.0,0.0,1.0,1.0
2024-12-02,11270.082775189936,11398.176787888184,1,1,,,0.0,0.0,0.0,0.0,1.0,1.0
2024-12-03,11742.432724072993,11840.916739975586,1,1,,,0.0,0.0,0.0,0.0,1.0,1.0
2024-12-04,11729.032417371332,11828.3564525,1,1,,,0.0,0.0,0.0,0.0,1.0,1.0
2024-12-05,11863.032928540766,11953.956931625977,1,1,,,0.0,0.0,0.0,0.0,1.0,1.0
2024-12-06,11869.731803968012,11960.235877548828,1,1,,,0.0,0.0,0.0,0.0,1.0,1.0
2024-12-09,11950.13236625439,12035.596404587403,1,1,,,0.0,0.0,0.0,0.0,1.0,1.0
2024-12-10,12087.482315137446,12164.336356674805,1,1,,,0.0,0.0,0.0,0.0,1.0,1.0
2024-12-11,12385.632110669672,12443.796165024414,1,1,,,0.0,0.0,0.0,0.0,1.0,1.0
2024-12-12,12251.632877423823,12318.196883713379,1,1,,,0.0,0.0,0.0,0.0,1.0,1.0
2024-12-13,12278.432212903559,12343.31626084961,1,1,,,0.0,0.0,0.0,0.0,1.0,1.0
2024-12-16,12131.03267295605,12205.156692062988,1,1,,,0.0,0.0,0.0,0.0,1.0,1.0
2024-12-17,12412.432724072993,12468.916739975586,1,1,,,0.0,0.0,0.0,0.0,1.0,1.0
2024-12-18,12355.482059552729,12415.536117111817,1,1,,,0.0,0.0,0.0,0.0,1.0,1.0
2024-12-19,12509.583030774653,12559.977027451172,1,1,,,0.0,0.0,0.0,0.0,1.0,1.0
2024-12-20,12241.582008435786,12308.776069199219,1,1,,,0.0,0.0,0.0,0.0,1.0,1.0
2024-12-23,12228.18297965771,12296.216979538574,1,1,,,0.0,0.0,0.0,0.0,1.0,1.0
2024-12-26,12221.48282630688,12289.936835800781,1,1,,,0.0,0.0,0.0,0.0,1.0,1.0
2024-12-27,12157.832008435786,12230.276069199219,1,1,,,0.0,0.0,0.0,0.0,1.0,1.0
2024-12-30,12124.33251960522,12198.876548325195,1,1,,,0.0,0.0,0.0,0.0,1.0,1.0
2025-01-02,12204.731803968012,12274.235877548828,1,1,,,0.0,0.0,0.0,0.0,1.0,1.0
2025-01-03,12060.68297965771,12139.216979538574,1,1,,,0.0,0.0,0.0,0.0,1.0,1.0
2025-01-06,12201.38236625439,12271.096404587403,1,1,,,0.0,0.0,0.0,0.0,1.0,1.0
2025-01-07,12241.582008435786,12308.776069199219,1,1,,,0.0,0.0,0.0,0.0,1.0,1.0
2025-01-08,12167.882877423823,12239.696883713379,1,1,,,0.0,0.0,0.0,0.0,1.0,1.0
2025-01-09,12157.832008435786,12230.276069199219,1,1,,,0.0,0.0,0.0,0.0,1.0,1.0
2025-01-10,12110.932212903559,12186.31626084961,1,1,,,0.0,0.0,0.0,0.0,1.0,1.0
2025-01-13,12124.33251960522,12198.876548325195,1,1,,,0.0,0.0,0.0,0.0,1.0,1.0
2025-01-14,12365.532928540766,12424.956931625977,1,1,,,0.0,0.0,0.0,0.0,1.0,1.0
2025-01-15,12516.281906201899,12566.255973374024,1,1,,,0.0,0.0,0.0,0.0,1.0,1.0
2025-01-16,12533.032928540766,12581.956931625977,1,1,,,0.0,0.0,0.0,0.0,1.0,1.0
2025-01-17,12677.083030774653,12716.977027451172,1,1,,,0.0,0.0,0.0,0.0,1.0,1.0
2025-01-20,12700.532928540766,12738.956931625977,1,1,,,0.0,0.0,0.0,0.0,1.0,1.0
2025-01-21,12710.58251960522,12748.376548325195,1,1,,,0.0,0.0,0.0,0.0,1.0,1.0
2025-01-22,12804.382110669672,12836.296165024414,1,1,,,0.0,0.0,0.0,0.0,1.0,1.0
2025-01-23,12740.732570722163,12776.636596237793,1,1,,,0.0,0.0,0.0,0.0,1.0,1.0
2025-01-24,12677.083030774653,12716.977027451172,1,1,,,0.0,0.0,0.0,0.0,1.0,1.0
2025-01-27,12924.982315137446,12949.336356674805,1,1,,,0.0,0.0,0.0,0.0,1.0,1.0
2025-01-28,13079.082008435786,13093.776069199219,1,1,,,0.0,0.0,0.0,0.0,1.0,1.0
2025-01-29,12988.631855084956,13008.995925461426,1,1,,,0.0,0.0,0.0,0.0,1.0,1.0
2025-01-30,12931.682468488276,12955.616500412598,1,1,,,0.0,0.0,0.0,0.0,1.0,1.0
2025-01-31,12914.932724072993,12939.916739975586,1,1,,,0.0,0.0,0.0,0.0,1.0,1.0
2025-02-03,13079.082008435786,13093.776069199219,1,1,,,0.0,0.0,0.0,0.0,1.0,1.0
2025-02-04,13065.68297965771,13081.216979538574,1,1,,,0.0,0.0,0.0,0.0,1.0,1.0
2025-02-05,13159.482570722163,13169.136596237793,1,1,,,0.0,0.0,0.0,0.0,1.0,1.0
2025-02-06,13313.582264020502,13313.576308762207,1,1,,,0.0,0.0,0.0,0.0,1.0,1.0
2025-02-07,13169.532161786616,13178.556212937012,1,1,,,0.0,0.0,0.0,0.0,1.0,1.0
2025-02-10,13286.782928540766,13288.456931625977,1,1,,,0.0,0.0,0.0,0.0,1.0,1.0
2025-02-11,13085.782161786616,13100.056212937012,1,1,,,0.0,0.0,0.0,0.0,1.0,1.0
2025-02-12,13109.232059552729,13122.036117111817,1,1,,,0.0,0.0,0.0,0.0,1.0,1.0
2025-02-13,12898.18297965771,12924.216979538574,1,1,,,0.0,0.0,0.0,0.0,1.0,1.0
2025-02-14,13028.832775189936,13046.676787888184,1,1,,,0.0,0.0,0.0,0.0,1.0,1.0
2025-02-17,12734.032417371332,12770.3564525,1,1,,,0.0,0.0,0.0,0.0,1.0,1.0
2025-02-18,13303.53267295605,13304.156692062988,1,1,,,0.0,0.0,0.0,0.0,1.0,1.0
2025-02-19,13316.93297965771,13316.716979538574,1,1,,,0.0,0.0,0.0,0.0,1.0,1.0
2025-02-20,13357.132621839106,13354.39664415039,1,1,,,0.0,0.0,0.0,0.0,1.0,1.0
2025-02-21,13186.335943435786,13194.30662319922,1,1,,,0.0,0.0,777.2539350000001,728.530554,1.0,1.0
2025-02-24,13340.43691465771,13338.747533538575,1,1,,,0.0,0.0,0.0,0.0,1.0,1.0
2025-02-25,13323.685892318843,13323.046575286622,1,1,,,0.0,0.0,0.0,0.0,1.0,1.0
2025-02-26,13353.835943435786,13351.30662319922,1,1,,,0.0,0.0,0.0,0.0,1.0,1.0
2025-02-27,13662.03660795605,13640.18724606299,1,1,,,0.0,0.0,0.0,0.0,1.0,1.0
2025-02-28,13457.686403488276,13448.647054412599,1,1,,,0.0,0.0,0.0,0.0,1.0,1.0
2025-03-05,13745.78660795605,13718.68724606299,1,1,,,0.0,0.0,0.0,0.0,1.0,1.0
2025-03-06,13863.036096786616,13828.586766937013,1,1,,,0.0,0.0,0.0,0.0,1.0,1.0
2025-03-07,13852.986505722163,13819.167150237794,1,1,,,0.0,0.0,0.0,0.0,1.0,1.0
2025-03-10,13826.185892318843,13794.046575286622,1,1,,,0.0,0.0,0.0,0.0,1.0,1.0
2025-03-11,13705.586965774653,13681.007581451173,1,1,,,0.0,0.0,0.0,0.0,1.0,1.0
2025-03-12,13702.236250137446,13677.866910674806,1,1,,,0.0,0.0,0.0,0.0,1.0,1.0
2025-03-13,13899.88630125439,13863.126958587403,1,1,,,0.0,0.0,0.0,0.0,1.0,1.0
2025-03-14,14117.636812423823,14067.22743771338,1,1,,,0.0,0.0,0.0,0.0,1.0,1.0
2025-03-17,14181.286352371333,14126.887006500001,1,1,,,0.0,0.0,0.0,0.0,1.0,1.0
2025-03-18,14308.586710189937,14246.207341888185,1,1,,,0.0,0.0,0.0,0.0,1.0,1.0
2025-03-19,14258.336199020503,14199.106862762208,1,1,,,0.0,0.0,0.0,0.0,1.0,1.0
2025-03-20,14352.135790084956,14287.026479461427,1,1,,,0.0,0.0,0.0,0.0,1.0,1.0
2025-03-21,14285.136812423823,14224.22743771338,1,1,,,0.0,0.0,0.0,0.0,1.0,1.0
2025-03-24,14187.986505722163,14133.167150237794,1,1,,,0.0,0.0,0.0,0.0,1.0,1.0
2025-03-25,14137.73599455273,14086.066671111817,1,1,,,0.0,0.0,0.0,0.0,1.0,1.0
2025-03-26,14224.836710189937,14167.707341888185,1,1,,,0.0,0.0,0.0,0.0,1.0,1.0
2025-03-27,14308.586710189937,14246.207341888185,1,1,,,0.0,0.0,0.0,0.0,1.0,1.0
2025-03-28,14268.385790084956,14208.526479461427,1,1,,,0.0,0.0,0.0,0.0,1.0,1.0
2025-03-31,14281.786096786616,14221.086766937013,1,1,,,0.0,0.0,0.0,0.0,1.0,1.0
2025-04-01,14583.28660795605,14503.68724606299,1,1,,,0.0,0.0,0.0,0.0,1.0,1.0
2025-04-02,14338.73676130688,14274.467389800782,1,1,,,0.0,0.0,0.0,0.0,1.0,1.0
2025-04-03,14579.935892318843,14500.546575286622,1,1,,,0.0,0.0,0.0,0.0,1.0,1.0
2025-04-04,14265.036352371333,14205.387006500001,1,1,,,0.0,0.0,0.0,0.0,1.0,1.0
2025-04-07,14204.736250137446,14148.866910674806,1,1,,,0.0,0.0,0.0,0.0,1.0,1.0
2025-04-08,14332.03660795605,14268.18724606299,1,1,,,0.0,0.0,0.0,0.0,1.0,1.0
2025-04-09,14445.936659072993,14374.947293975587,1,1,,,0.0,0.0,0.0,0.0,1.0,1.0
2025-04-10,14067.38630125439,14020.126958587403,1,1,,,0.0,0.0,0.0,0.0,1.0,1.0
2025-04-11,14174.586199020503,14120.606862762208,1,1,,,0.0,0.0,0.0,0.0,1.0,1.0
2025-04-14,14278.436659072993,14217.947293975587,1,1,,,0.0,0.0,0.0,0.0,1.0,1.0
2025-04-15,14385.636556839107,14318.427198150392,1,1,,,0.0,0.0,0.0,0.0,1.0,1.0
2025-04-16,14332.03660795605,14268.18724606299,1,1,,,0.0,0.0,0.0,0.0,1.0,1.0
2025-04-17,14429.18691465771,14359.247533538575,1,1,,,0.0,0.0,0.0,0.0,1.0,1.0
2025-04-22,14482.786863540767,14409.487485625978,1,1,,,0.0,0.0,0.0,0.0,1.0,1.0
2025-04-23,14576.58645460522,14497.407102325196,1,1,,,0.0,0.0,0.0,0.0,1.0,1.0
2025-04-24,14723.98599455273,14635.566671111817,1,1,,,0.0,0.0,0.0,0.0,1.0,1.0
2025-04-25,14868.036096786616,14770.586766937013,1,1,,,0.0,0.0,0.0,0.0,1.0,1.0
2025-04-28,14991.985738968013,14886.76643154883,1,1,,,0.0,0.0,0.0,0.0,1.0,1.0
2025-04-29,14794.336965774653,14701.507581451173,1,1,,,0.0,0.0,0.0,0.0,1.0,1.0
2025-04-30,15109.236505722163,14996.667150237794,1,1,,,0.0,0.0,0.0,0.0,1.0,1.0
2025-05-02,14901.536863540767,14801.987485625978,1,1,,,0.0,0.0,0.0,0.0,1.0,1.0
2025-05-05,14831.185892318843,14736.046575286622,1,1,,,0.0,0.0,0.0,0.0,1.0,1.0
2025-05-06,13785.986250137446,13756.366910674806,1,1,,,0.0,0.0,0.0,0.0,1.0,1.0
2025-05-07,13916.636045669673,13878.826719024415,1,1,,,0.0,0.0,0.0,0.0,1.0,1.0
2025-05-08,13574.935892318843,13558.546575286622,1,1,,,0.0,0.0,0.0,0.0,1.0,1.0
2025-05-09,13621.836965774653,13602.507581451173,1,1,,,0.0,0.0,0.0,0.0,1.0,1.0
2025-05-12,13487.83645460522,13476.907102325196,1,1,,,0.0,0.0,0.0,0.0,1.0,1.0
2025-05-13,13611.786096786616,13593.086766937013,1,1,,,0.0,0.0,0.0,0.0,1.0,1.0
2025-05-14,13682.135790084956,13659.026479461427,1,1,,,0.0,0.0,0.0,0.0,1.0,1.0
2025-05-15,13682.135790084956,13659.026479461427,1,1,,,0.0,0.0,0.0,0.0,1.0,1.0
2025-05-16,13440.936659072993,13432.947293975587,1,1,,,0.0,0.0,0.0,0.0,1.0,1.0
2025-05-19,13588.336199020503,13571.106862762208,1,1,,,0.0,0.0,0.0,0.0,1.0,1.0
2025-05-20,13641.93614790356,13621.34681484961,1,1,,,0.0,0.0,0.0,0.0,1.0,1.0
2025-05-21,13548.136556839107,13533.427198150392,1,1,,,0.0,0.0,0.0,0.0,1.0,1.0
2025-05-22,13430.885790084956,13423.526479461427,1,1,,,0.0,0.0,0.0,0.0,1.0,1.0
2025-05-23,13544.7858412019,13530.286527374024,1,1,,,0.0,0.0,0.0,0.0,1.0,1.0
2025-05-26,13497.886045669673,13486.326719024415,1,1,,,0.0,0.0,0.0,0.0,1.0,1.0
2025-05-27,13621.836965774653,13602.507581451173,1,1,,,0.0,0.0,0.0,0.0,1.0,1.0
2025-05-28,13564.88630125439,13549.126958587403,1,1,,,0.0,0.0,0.0,0.0,1.0,1.0
2025-05-29,13487.83645460522,13476.907102325196,1,1,,,0.0,0.0,0.0,0.0,1.0,1.0
2025-05-30,13347.135790084956,13345.026479461427,1,1,,,0.0,0.0,0.0,0.0,1.0,1.0
2025-06-02,13172.93691465771,13181.747533538575,1,1,,,0.0,0.0,0.0,0.0,1.0,1.0
2025-06-03,13059.036863540767,13074.987485625978,1,1,,,0.0,0.0,0.0,0.0,1.0,1.0
2025-06-04,12841.286352371333,12870.887006500001,1,1,,,0.0,0.0,0.0,0.0,1.0,1.0
2025-06-05,12941.786096786616,12965.086766937013,1,1,,,0.0,0.0,0.0,0.0,1.0,1.0
2025-06-06,12988.685892318843,13009.046575286622,1,1,,,0.0,0.0,0.0,0.0,1.0,1.0
2025-06-09,12935.085943435786,12958.80662319922,1,1,,,0.0,0.0,0.0,0.0,1.0,1.0
2025-06-10,12673.786352371333,12713.887006500001,1,1,,,0.0,0.0,0.0,0.0,1.0,1.0
2025-06-11,12549.836710189937,12597.707341888185,1,1,,,0.0,0.0,0.0,0.0,1.0,1.0
2025-06-12,12603.436659072993,12647.947293975587,1,1,,,0.0,0.0,0.0,0.0,1.0,1.0
2025-06-13,12677.135790084956,12717.026479461427,1,1,,,0.0,0.0,0.0,0.0,1.0,1.0
2025-06-16,12780.986250137446,12814.366910674806,1,1,,,0.0,0.0,0.0,0.0,1.0,1.0
2025-06-17,12680.486505722163,12720.167150237794,1,1,,,0.0,0.0,0.0,0.0,1.0,1.0
2025-06-18,12683.835943435786,12723.30662319922,1,1,,,0.0,0.0,0.0,0.0,1.0,1.0
2025-06-20,12569.935892318843,12616.546575286622,1,1,,,0.0,0.0,0.0,0.0,1.0,1.0
2025-06-23,12677.135790084956,12717.026479461427,1,1,,,0.0,0.0,0.0,0.0,1.0,1.0
2025-06-24,12643.63630125439,12685.626958587403,1,1,,,0.0,0.0,0.0,0.0,1.0,1.0
2025-06-25,12523.036096786616,12572.586766937013,1,1,,,0.0,0.0,0.0,0.0,1.0,1.0
2025-06-26,12569.935892318843,12616.546575286622,1,1,,,0.0,0.0,0.0,0.0,1.0,1.0
2025-06-27,12583.336199020503,12629.106862762208,1,1,,,0.0,0.0,0.0,0.0,1.0,1.0
2025-06-30,12774.286096786616,12808.086766937013,1,1,,,0.0,0.0,0.0,0.0,1.0,1.0
2025-07-01,12985.33645460522,13005.907102325196,1,1,,,0.0,0.0,0.0,0.0,1.0,1.0
2025-07-02,12925.036352371333,12949.387006500001,1,1,,,0.0,0.0,0.0,0.0,1.0,1.0
2025-07-03,13005.43691465771,13024.747533538575,1,1,,,0.0,0.0,0.0,0.0,1.0,1.0
2025-07-04,13012.135790084956,13031.026479461427,1,1,,,0.0,0.0,0.0,0.0,1.0,1.0
2025-07-07,12871.436403488276,12899.147054412599,1,1,,,0.0,0.0,0.0,0.0,1.0,1.0
2025-07-08,12770.936659072993,12804.947293975587,1,1,,,0.0,0.0,0.0,0.0,1.0,1.0
2025-07-09,12579.98676130688,12625.967389800782,1,1,,,0.0,0.0,0.0,0.0,1.0,1.0
2025-07-10,12606.786096786616,12651.086766937013,1,1,,,0.0,0.0,0.0,0.0,1.0,1.0
2025-07-11,12579.98676130688,12625.967389800782,1,1,,,0.0,0.0,0.0,0.0,1.0,1.0
2025-07-14,12610.136812423823,12654.22743771338,1,1,,,0.0,0.0,0.0,0.0,1.0,1.0
2025-07-15,12486.185892318843,12538.046575286622,1,1,,,0.0,0.0,0.0,0.0,1.0,1.0
2025-07-16,12452.686403488276,12506.647054412599,1,1,,,0.0,0.0,0.0,0.0,1.0,1.0
2025-07-17,12449.336965774653,12503.507581451173,1,1,,,0.0,0.0,0.0,0.0,1.0,1.0
2025-07-18,12278.486250137446,12343.366910674806,1,1,,,0.0,0.0,0.0,0.0,1.0,1.0
2025-07-21,12325.386045669673,12387.326719024415,1,1,,,0.0,0.0,0.0,0.0,1.0,1.0
2025-07-22,12060.735738968013,12139.26643154883,1,1,,,0.0,0.0,0.0,0.0,1.0,1.0
2025-07-23,12097.585943435786,12173.80662319922,1,1,,,0.0,0.0,0.0,0.0,1.0,1.0
2025-07-24,12033.936403488276,12114.147054412599,1,1,,,0.0,0.0,0.0,0.0,1.0,1.0
2025-07-25,12013.835943435786,12095.30662319922,1,1,,,0.0,0.0,0.0,0.0,1.0,1.0
2025-07-28,12020.536096786616,12101.586766937013,1,1,,,0.0,0.0,0.0,0.0,1.0,1.0
2025-07-29,12074.136045669673,12151.826719024415,1,1,,,0.0,0.0,0.0,0.0,1.0,1.0
2025-07-30,12047.336710189937,12126.707341888185,1,1,,,0.0,0.0,0.0,0.0,1.0,1.0
2025-07-31,12070.78660795605,12148.68724606299,1,1,,,0.0,0.0,0.0,0.0,1.0,1.0
2025-08-01,11983.685892318843,12067.046575286622,1,1,,,0.0,0.0,0.0,0.0,1.0,1.0
2025-08-04,12020.536096786616,12101.586766937013,1,1,,,0.0,0.0,0.0,0.0,1.0,1.0
2025-08-05,12147.83645460522,12220.907102325196,1,1,,,0.0,0.0,0.0,0.0,1.0,1.0
2025-08-06,12298.586710189937,12362.207341888185,1,1,,,0.0,0.0,0.0,0.0,1.0,1.0
2025-08-07,12325.386045669673,12387.326719024415,1,1,,,0.0,0.0,0.0,0.0,1.0,1.0
2025-08-08,12328.73676130688,12390.467389800782,1,1,,,0.0,0.0,0.0,0.0,1.0,1.0
2025-08-11,12449.336965774653,12503.507581451173,1,1,,,0.0,0.0,0.0,0.0,1.0,1.0
2025-08-12,12583.336199020503,12629.106862762208,1,1,,,0.0,0.0,0.0,0.0,1.0,1.0
2025-08-13,12502.93691465771,12553.747533538575,1,1,,,0.0,0.0,0.0,0.0,1.0,1.0
2025-08-14,12613.486250137446,12657.366910674806,1,1,,,0.0,0.0,0.0,0.0,1.0,1.0
2025-08-15,12416.538484072993,12472.765123975587,1,1,,,0.0,0.0,650.601825,609.81783,1.0,1.0
2025-08-18,12429.187026232132,12494.745028150392,0,1,SELL,,32.89354484748841,0.0,0.0,0.0,1.0,1.0
2025-08-19,12168.262142493135,12293.785219800782,1,1,BUY,,32.84641683197021,0.0,0.0,0.0,1.0,1.0
2025-08-20,12055.161711050874,12199.5848604563,1,1,,,0.0,0.0,0.0,0.0,1.0,1.0
2025-08-21,11945.831365897066,12108.524572980714,1,1,,,0.0,0.0,0.0,0.0,1.0,1.0
2025-08-22,12009.921394659883,12161.904596937013,1,1,,,0.0,0.0,0.0,0.0,1.0,1.0
2025-08-25,12149.41099198044,12278.084261548829,1,1,,,0.0,0.0,0.0,0.0,1.0,1.0
2025-08-26,12183.341049506074,12306.344309461427,1,1,,,0.0,0.0,0.0,0.0,1.0,1.0
2025-08-27,12273.821682288057,12381.704836500001,1,1,,,0.0,0.0,0.0,0.0,1.0,1.0
2025-08-28,12288.902027441865,12394.265123975587,1,1,,,0.0,0.0,0.0,0.0,1.0,1.0
2025-08-29,12394.461567236787,12482.184740674806,1,1,,,0.0,0.0,0.0,0.0,1.0,1.0
2025-09-01,12345.451164557344,12441.364405286622,1,1,,,0.0,0.0,0.0,0.0,1.0,1.0
2025-09-02,12145.641624762422,12274.944788587403,1,1,,,0.0,0.0,0.0,0.0,1.0,1.0
2025-09-03,12104.171394659883,12240.404596937013,1,1,,,0.0,0.0,0.0,0.0,1.0,1.0
2025-09-04,12164.491337134248,12290.644549024415,1,1,,,0.0,0.0,0.0,0.0,1.0,1.0
2025-09-05,12175.80231507004,12300.065363538575,1,1,,,0.0,0.0,0.0,0.0,1.0,1.0
2025-09-08,12179.571682288057,12303.204836500001,1,1,,,0.0,0.0,0.0,0.0,1.0,1.0
2025-09-09,12262.512142493135,12372.285219800782,1,1,,,0.0,0.0,0.0,0.0,1.0,1.0
2025-09-10,12251.201164557344,12362.864405286622,1,1,,,0.0,0.0,0.0,0.0,1.0,1.0
2025-09-11,12232.351452185518,12347.16464484961,1,1,,,0.0,0.0,0.0,0.0,1.0,1.0
2025-09-12,12126.791912390596,12259.245028150392,1,1,,,0.0,0.0,0.0,0.0,1.0,1.0
2025-09-15,12141.872257544404,12271.805315625978,1,1,,,0.0,0.0,0.0,0.0,1.0,1.0
2025-09-16,12205.961567236787,12325.184740674806,1,1,,,0.0,0.0,0.0,0.0,1.0,1.0
2025-09-17,12285.131222082979,12391.12445319922,1,1,,,0.0,0.0,0.0,0.0,1.0,1.0
2025-09-18,12379.381222082979,12469.62445319922,1,1,,,0.0,0.0,0.0,0.0,1.0,1.0
2025-09-19,12432.16099198044,12513.584261548829,1,1,,,0.0,0.0,0.0,0.0,1.0,1.0
2025-09-22,12552.80231507004,12614.065363538575,1,1,,,0.0,0.0,0.0,0.0,1.0,1.0
2025-09-23,12575.421394659883,12632.904596937013,1,1,,,0.0,0.0,0.0,0.0,1.0,1.0
2025-09-24,12439.701164557344,12519.864405286622,1,1,,,0.0,0.0,0.0,0.0,1.0,1.0
2025-09-25,12303.982372595674,12406.825411451173,1,1,,,0.0,0.0,0.0,0.0,1.0,1.0
2025-09-26,12254.97196991623,12366.00507606299,1,1,,,0.0,0.0,0.0,0.0,1.0,1.0
2025-09-29,12334.141624762422,12431.944788587403,1,1,,,0.0,0.0,0.0,0.0,1.0,1.0
2025-09-30,12560.341049506074,12620.344309461427,1,1,,,0.0,0.0,0.0,0.0,1.0,1.0
2025-10-01,12616.891624762422,12667.444788587403,1,1,,,0.0,0.0,0.0,0.0,1.0,1.0
2025-10-02,12492.482372595674,12563.825411451173,1,1,,,0.0,0.0,0.0,0.0,1.0,1.0
2025-10-03,12394.461567236787,12482.184740674806,1,1,,,0.0,0.0,0.0,0.0,1.0,1.0
2025-10-06,12386.921394659883,12475.904596937013,1,1,,,0.0,0.0,0.0,0.0,1.0,1.0
2025-10-07,12484.94220001877,12557.54526771338,1,1,,,0.0,0.0,0.0,0.0,1.0,1.0
2025-10-08,12371.841049506074,12463.344309461427,1,1,,,0.0,0.0,0.0,0.0,1.0,1.0
2025-10-09,12371.841049506074,12463.344309461427,1,1,,,0.0,0.0,0.0,0.0,1.0,1.0
2025-10-10,12311.52110703171,12413.104357374024,1,1,,,0.0,0.0,0.0,0.0,1.0,1.0
2025-10-13,12254.97196991623,12366.00507606299,1,1,,,0.0,0.0,0.0,0.0,1.0,1.0
2025-10-14,12266.281509711152,12375.424692762208,1,1,,,0.0,0.0,0.0,0.0,1.0,1.0
2025-10-15,12089.091049506074,12227.844309461427,1,1,,,0.0,0.0,0.0,0.0,1.0,1.0
2025-10-16,12013.691480948335,12165.04466880591,1,1,,,0.0,0.0,0.0,0.0,1.0,1.0
2025-10-17,12070.241337134248,12212.144549024415,1,1,,,0.0,0.0,0.0,0.0,1.0,1.0
2025-10-20,12126.791912390596,12259.245028150392,1,1,,,0.0,0.0,0.0,0.0,1.0,1.0
2025-10-21,12051.391624762422,12196.444788587403,1,1,,,0.0,0.0,0.0,0.0,1.0,1.0
2025-10-22,12123.02110703171,12256.104357374024,1,1,,,0.0,0.0,0.0,0.0,1.0,1.0
2025-10-23,12089.091049506074,12227.844309461427,1,1,,,0.0,0.0,0.0,0.0,1.0,1.0
2025-10-24,12115.482372595674,12249.825411451173,1,1,,,0.0,0.0,0.0,0.0,1.0,1.0
2025-10-27,12149.41099198044,12278.084261548829,1,1,,,0.0,0.0,0.0,0.0,1.0,1.0
2025-10-28,12341.681797339326,12438.224932325196,1,1,,,0.0,0.0,0.0,0.0,1.0,1.0
2025-10-29,12243.66099198044,12356.584261548829,1,1,,,0.0,0.0,0.0,0.0,1.0,1.0
2025-10-30,12394.461567236787,12482.184740674806,1,1,,,0.0,0.0,0.0,0.0,1.0,1.0
2025-10-31,12405.77110703171,12491.604357374024,1,1,,,0.0,0.0,0.0,0.0,1.0,1.0
2025-11-03,12552.80231507004,12614.065363538575,1,1,,,0.0,0.0,0.0,0.0,1.0,1.0
2025-11-04,12703.601452185518,12739.66464484961,1,1,,,0.0,0.0,0.0,0.0,1.0,1.0
2025-11-05,12745.071682288057,12774.204836500001,1,1,,,0.0,0.0,0.0,0.0,1.0,1.0
2025-11-06,12926.031509711152,12924.924692762208,1,1,,,0.0,0.0,0.0,0.0,1.0,1.0
2025-11-07,12771.461567236787,12796.184740674806,1,1,,,0.0,0.0,0.0,0.0,1.0,1.0
2025-11-10,12967.501739813692,12959.464884412599,1,1,,,0.0,0.0,0.0,0.0,1.0,1.0
2025-11-11,12673.44220001877,12714.54526771338,1,1,,,0.0,0.0,0.0,0.0,1.0,1.0
2025-11-12,12571.652027441865,12629.765123975587,1,1,,,0.0,0.0,0.0,0.0,1.0,1.0
2025-11-13,12586.732372595674,12642.325411451173,1,1,,,0.0,0.0,0.0,0.0,1.0,1.0
2025-11-14,12760.152027441865,12786.765123975587,1,1,,,0.0,0.0,0.0,0.0,1.0,1.0
2025-11-17,12782.77110703171,12805.604357374024,1,1,,,0.0,0.0,0.0,0.0,1.0,1.0
2025-11-18,12647.05231507004,12692.565363538575,1,1,,,0.0,0.0,0.0,0.0,1.0,1.0
2025-11-19,12582.961567236787,12639.184740674806,1,1,,,0.0,0.0,0.0,0.0,1.0,1.0
2025-11-21,12564.111854864961,12623.484980237794,1,1,,,0.0,0.0,0.0,0.0,1.0,1.0
2025-11-24,12673.44220001877,12714.54526771338,1,1,,,0.0,0.0,0.0,0.0,1.0,1.0
2025-11-25,12892.101452185518,12896.66464484961,1,1,,,0.0,0.0,0.0,0.0,1.0,1.0
2025-11-26,13065.52110703171,13041.104357374024,1,1,,,0.0,0.0,0.0,0.0,1.0,1.0
2025-11-27,13024.05231507004,13006.565363538575,1,1,,,0.0,0.0,0.0,0.0,1.0,1.0
2025-11-28,12880.791912390596,12887.245028150392,1,1,,,0.0,0.0,0.0,0.0,1.0,1.0
2025-12-01,13069.291912390596,13044.245028150392,1,1,,,0.0,0.0,0.0,0.0,1.0,1.0
2025-12-02,13140.921394659883,13103.904596937013,1,1,,,0.0,0.0,0.0,0.0,1.0,1.0
2025-12-03,13122.071682288057,13088.204836500001,1,1,,,0.0,0.0,0.0,0.0,1.0,1.0
2025-12-04,13329.421394659883,13260.904596937013,1,1,,,0.0,0.0,0.0,0.0,1.0,1.0
2025-12-05,13027.821682288057,13009.704836500001,1,1,,,0.0,0.0,0.0,0.0,1.0,1.0
2025-12-08,13374.66099198044,13298.584261548829,1,1,,,0.0,0.0,0.0,0.0,1.0,1.0
2025-12-09,13310.571682288057,13245.204836500001,1,1,,,0.0,0.0,0.0,0.0,1.0,1.0
2025-12-10,13378.431797339326,13301.724932325196,1,1,,,0.0,0.0,0.0,0.0,1.0,1.0
2025-12-11,13280.41099198044,13220.084261548829,1,1,,,0.0,0.0,0.0,0.0,1.0,1.0
2025-12-12,13446.291912390596,13358.245028150392,1,1,,,0.0,0.0,0.0,0.0,1.0,1.0
2025-12-15,13499.071682288057,13402.204836500001,1,1,,,0.0,0.0,0.0,0.0,1.0,1.0
2025-12-16,13306.80231507004,13242.065363538575,1,1,,,0.0,0.0,0.0,0.0,1.0,1.0
2025-12-17,13182.391624762422,13138.444788587403,1,1,,,0.0,0.0,0.0,0.0,1.0,1.0
2025-12-18,13325.652027441865,13257.765123975587,1,1,,,0.0,0.0,0.0,0.0,1.0,1.0
2025-12-19,13318.111854864961,13251.484980237794,1,1,,,0.0,0.0,0.0,0.0,1.0,1.0
2025-12-22,13242.711567236787,13188.684740674806,1,1,,,0.0,0.0,0.0,0.0,1.0,1.0
2025-12-23,13423.671394659883,13339.404596937013,1,1,,,0.0,0.0,0.0,0.0,1.0,1.0
2025-12-26,13506.611854864961,13408.484980237794,1,1,,,0.0,0.0,0.0,0.0,1.0,1.0
2025-12-29,13619.711567236787,13502.684740674806,1,1,,,0.0,0.0,0.0,0.0,1.0,1.0
2025-12-30,13649.872257544404,13527.805315625978,1,1,,,0.0,0.0,0.0,0.0,1.0,1.0
2026-01-02,13495.30231507004,13399.065363538575,1,1,,,0.0,0.0,0.0,0.0,1.0,1.0
2026-01-05,13540.541912390596,13436.745028150392,1,1,,,0.0,0.0,0.0,0.0,1.0,1.0
2026-01-06,13631.02110703171,13512.104357374024,1,1,,,0.0,0.0,0.0,0.0,1.0,1.0
2026-01-07,13367.122257544404,13292.305315625978,1,1,,,0.0,0.0,0.0,0.0,1.0,1.0
2026-01-08,13084.372257544404,13056.805315625978,1,1,,,0.0,0.0,0.0,0.0,1.0,1.0
2026-01-09,13212.55231507004,13163.565363538575,1,1,,,0.0,0.0,0.0,0.0,1.0,1.0
2026-01-12,13140.921394659883,13103.904596937013,1,1,,,0.0,0.0,0.0,0.0,1.0,1.0
2026-01-13,13099.451164557344,13069.364405286622,1,1,,,0.0,0.0,0.0,0.0,1.0,1.0
2026-01-14,13148.461567236787,13110.184740674806,1,1,,,0.0,0.0,0.0,0.0,1.0,1.0
2026-01-15,13182.391624762422,13138.444788587403,1,1,,,0.0,0.0,0.0,0.0,1.0,1.0
2026-01-16,13261.561279608613,13204.384501111817,1,1,,,0.0,0.0,0.0,0.0,1.0,1.0
2026-01-19,13321.881222082979,13254.62445319922,1,1,,,0.0,0.0,0.0,0.0,1.0,1.0
2026-01-20,13438.751739813692,13351.964884412599,1,1,,,0.0,0.0,0.0,0.0,1.0,1.0
2026-01-21,13664.951164557344,13540.364405286622,1,1,,,0.0,0.0,0.0,0.0,1.0,1.0
2026-01-22,14079.652027441865,13885.765123975587,1,1,,,0.0,0.0,0.0,0.0,1.0,1.0
2026-01-23,13966.55231507004,13791.565363538575,1,1,,,0.0,0.0,0.0,0.0,1.0,1.0
2026-01-26,13996.711567236787,13816.684740674806,1,1,,,0.0,0.0,0.0,0.0,1.0,1.0
2026-01-27,13959.012142493135,13785.285219800782,1,1,,,0.0,0.0,0.0,0.0,1.0,1.0
2026-01-28,14264.381222082979,14039.62445319922,1,1,,,0.0,0.0,0.0,0.0,1.0,1.0
2026-01-29,14173.902027441865,13964.265123975587,1,1,,,0.0,0.0,0.0,0.0,1.0,1.0
2026-01-30,14087.19220001877,13892.04526771338,1,1,,,0.0,0.0,0.0,0.0,1.0,1.0
2026-02-02,14385.02110703171,14140.104357374024,1,1,,,0.0,0.0,0.0,0.0,1.0,1.0
2026-02-03,14456.652027441865,14199.765123975587,1,1,,,0.0,0.0,0.0,0.0,1.0,1.0
2026-02-04,14026.872257544404,13841.805315625978,1,1,,,0.0,0.0,0.0,0.0,1.0,1.0
2026-02-05,14049.491337134248,13860.644549024415,1,1,,,0.0,0.0,0.0,0.0,1.0,1.0
2026-02-06,14057.031509711152,13866.924692762208,1,1,,,0.0,0.0,0.0,0.0,1.0,1.0
2026-02-09,14106.041912390596,13907.745028150392,1,1,,,0.0,0.0,0.0,0.0,1.0,1.0
2026-02-10,14430.262142493135,14177.785219800782,1,1,,,0.0,0.0,0.0,0.0,1.0,1.0
2026-02-11,14705.47196991623,14407.00507606299,1,1,,,0.0,0.0,0.0,0.0,1.0,1.0
2026-02-12,14256.841049506074,14033.344309461427,1,1,,,0.0,0.0,0.0,0.0,1.0,1.0
2026-02-13,13754.227806236788,13614.722138674806,1,1,,,0.0,0.0,982.7662389999999,818.5373979999999,1.0,1.0
2026-02-18,13629.81855407004,13511.102761538576,1,1,,,0.0,0.0,0.0,0.0,1.0,1.0
2026-02-19,13663.748611595674,13539.362809451173,1,1,,,0.0,0.0,0.0,0.0,1.0,1.0
2026-02-20,13840.937633659883,13686.941994937013,1,1,,,0.0,0.0,0.0,0.0,1.0,1.0
2026-02-23,13863.558151390596,13705.782426150392,1,1,,,0.0,0.0,0.0,0.0,1.0,1.0
2026-02-24,14138.767978813692,13935.002282412599,1,1,,,0.0,0.0,0.0,0.0,1.0,1.0
2026-02-25,14202.857288506075,13988.381707461427,1,1,,,0.0,0.0,0.0,0.0,1.0,1.0
2026-02-26,14240.558151390596,14019.782426150392,1,1,,,0.0,0.0,0.0,0.0,1.0,1.0
2026-02-27,14078.448036339327,13884.762330325197,1,1,,,0.0,0.0,0.0,0.0,1.0,1.0
2026-03-02,14104.837921288057,13906.742234500001,1,1,,,0.0,0.0,0.0,0.0,1.0,1.0
2026-03-03,13972.888496544405,13796.842713625978,1,1,,,0.0,0.0,0.0,0.0,1.0,1.0
2026-03-04,13961.577518608614,13787.421899111818,1,1,,,0.0,0.0,0.0,0.0,1.0,1.0
2026-03-05,13716.528381493135,13583.322617800783,1,1,,,0.0,0.0,0.0,0.0,1.0,1.0
2026-03-06,13897.488208916231,13734.04247406299,1,1,,,0.0,0.0,0.0,0.0,1.0,1.0
2026-03-09,13859.78734603171,13702.641755374025,1,1,,,0.0,0.0,0.0,0.0,1.0,1.0
2026-03-10,14014.357288506075,13831.381707461427,1,1,,,0.0,0.0,0.0,0.0,1.0,1.0
2026-03-11,14070.907863762422,13878.482186587404,1,1,,,0.0,0.0,0.0,0.0,1.0,1.0
2026-03-12,13961.577518608614,13787.421899111818,1,1,,,0.0,0.0,0.0,0.0,1.0,1.0
2026-03-13,14217.937633659883,14000.941994937013,1,1,,,0.0,0.0,0.0,0.0,1.0,1.0
2026-03-16,14153.8483239675,13947.562569888185,1,1,,,0.0,0.0,0.0,0.0,1.0,1.0
2026-03-17,14168.92723098044,13960.12165954883,1,1,,,0.0,0.0,0.0,0.0,1.0,1.0
2026-03-18,14018.128093864962,13834.522378237794,1,1,,,0.0,0.0,0.0,0.0,1.0,1.0
2026-03-19,14070.907863762422,13878.482186587404,1,1,,,0.0,0.0,0.0,0.0,1.0,1.0
2026-03-20,13856.017978813692,13699.502282412599,1,1,,,0.0,0.0,0.0,0.0,1.0,1.0
2026-03-23,14067.138496544405,13875.342713625978,1,1,,,0.0,0.0,0.0,0.0,1.0,1.0
2026-03-24,13995.507576134249,13815.681947024415,1,1,,,0.0,0.0,0.0,0.0,1.0,1.0
2026-03-25,14134.998611595674,13931.862809451173,1,1,,,0.0,0.0,0.0,0.0,1.0,1.0
2026-03-26,14063.367691185518,13872.20204284961,1,1,,,0.0,0.0,0.0,0.0,1.0,1.0
2026-03-27,13972.888496544405,13796.842713625978,1,1,,,0.0,0.0,0.0,0.0,1.0,1.0
2026-03-30,13935.187633659883,13765.441994937013,1,1,,,0.0,0.0,0.0,0.0,1.0,1.0
2026-03-31,14127.45843901877,13925.58266571338,1,1,,,0.0,0.0,0.0,0.0,1.0,1.0
2026-04-01,14236.78734603171,14016.641755374025,1,1,,,0.0,0.0,0.0,0.0,1.0,1.0
2026-04-02,14361.198036339327,14120.262330325197,1,1,,,0.0,0.0,0.0,0.0,1.0,1.0
2026-04-06,14364.967403557344,14123.401803286622,1,1,,,0.0,0.0,0.0,0.0,1.0,1.0
2026-04-07,14376.278381493135,14132.822617800783,1,1,,,0.0,0.0,0.0,0.0,1.0,1.0
2026-04-08,14519.53734603171,14252.141755374025,1,1,,,0.0,0.0,0.0,0.0,1.0,1.0
2026-04-09,14538.388496544405,14267.842713625978,1,1,,,0.0,0.0,0.0,0.0,1.0,1.0
2026-04-10,14730.657863762422,14427.982186587404,1,1,,,0.0,0.0,0.0,0.0,1.0,1.0
2026-04-13,14594.937633659883,14314.941994937013,1,1,,,0.0,0.0,0.0,0.0,1.0,1.0
2026-04-14,14474.297748711153,14214.462090762208,1,1,,,0.0,0.0,0.0,0.0,1.0,1.0
2026-04-15,14217.937633659883,14000.941994937013,1,1,,,0.0,0.0,0.0,0.0,1.0,1.0
2026-04-16,14202.857288506075,13988.381707461427,1,1,,,0.0,0.0,0.0,0.0,1.0,1.0
2026-04-17,14168.92723098044,13960.12165954883,1,1,,,0.0,0.0,0.0,0.0,1.0,1.0
2026-04-20,14304.64746108298,14073.16185119922,1,1,,,0.0,0.0,0.0,0.0,1.0,1.0
2026-04-22,14085.988208916231,13891.04247406299,1,1,,,0.0,0.0,0.0,0.0,1.0,1.0
2026-04-23,13923.878093864962,13756.022378237794,1,1,,,0.0,0.0,0.0,0.0,1.0,1.0
2026-04-24,13931.418266441866,13762.302521975587,1,1,,,0.0,0.0,0.0,0.0,1.0,1.0
2026-04-27,13803.238208916231,13655.54247406299,1,1,,,0.0,0.0,0.0,0.0,1.0,1.0
2026-04-28,13837.168266441866,13683.802521975587,1,1,,,0.0,0.0,0.0,0.0,1.0,1.0
2026-04-29,13727.837921288057,13592.742234500001,1,1,,,0.0,0.0,0.0,0.0,1.0,1.0
2026-04-30,13776.8483239675,13633.562569888185,1,1,,,0.0,0.0,0.0,0.0,1.0,1.0
2026-05-04,13765.53734603171,13624.141755374025,1,1,,,0.0,0.0,0.0,0.0,1.0,1.0
2026-05-05,13991.738208916231,13812.54247406299,1,1,,,0.0,0.0,0.0,0.0,1.0,1.0
2026-05-06,14134.998611595674,13931.862809451173,1,1,,,0.0,0.0,0.0,0.0,1.0,1.0
2026-05-07,13935.187633659883,13765.441994937013,1,1,,,0.0,0.0,0.0,0.0,1.0,1.0
2026-05-08,14018.128093864962,13834.522378237794,1,1,,,0.0,0.0,0.0,0.0,1.0,1.0
2026-05-11,13935.187633659883,13765.441994937013,1,1,,,0.0,0.0,0.0,0.0,1.0,1.0
2026-05-12,13901.257576134249,13737.181947024415,1,1,,,0.0,0.0,0.0,0.0,1.0,1.0
2026-05-13,13833.39746108298,13680.66185119922,1,1,,,0.0,0.0,0.0,0.0,1.0,1.0
2026-05-14,14003.047748711153,13821.962090762208,1,1,,,0.0,0.0,0.0,0.0,1.0,1.0
2026-05-15,13867.327518608614,13708.921899111818,1,1,,,0.0,0.0,0.0,0.0,1.0,1.0
2026-05-18,13867.327518608614,13708.921899111818,1,1,,,0.0,0.0,0.0,0.0,1.0,1.0
2026-05-19,13788.157863762422,13642.982186587404,1,1,,,0.0,0.0,0.0,0.0,1.0,1.0
2026-05-20,14089.757576134249,13894.181947024415,1,1,,,0.0,0.0,0.0,0.0,1.0,1.0
2026-05-21,14101.06855407004,13903.602761538576,1,1,,,0.0,0.0,0.0,0.0,1.0,1.0
2026-05-22,13999.278381493135,13818.822617800783,1,1,,,0.0,0.0,0.0,0.0,1.0,1.0
2026-05-25,14055.827518608614,13865.921899111818,1,1,,,0.0,0.0,0.0,0.0,1.0,1.0
2026-05-26,14093.528381493135,13897.322617800783,1,1,,,0.0,0.0,0.0,0.0,1.0,1.0
2026-05-27,14146.308151390596,13941.282426150392,1,1,,,0.0,0.0,0.0,0.0,1.0,1.0
2026-05-28,14040.748611595674,13853.362809451173,1,1,,,0.0,0.0,0.0,0.0,1.0,1.0
2026-05-29,14349.888496544405,14110.842713625978,1,1,,,0.0,0.0,0.0,0.0,1.0,1.0
2026-06-01,14210.39746108298,13994.66185119922,1,1,,,0.0,0.0,0.0,0.0,1.0,1.0
2026-06-02,14248.0983239675,14026.062569888185,1,1,,,0.0,0.0,0.0,0.0,1.0,1.0
2026-06-03,14214.168266441866,13997.802521975587,1,1,,,0.0,0.0,0.0,0.0,1.0,1.0
2026-06-05,14346.117691185518,14107.70204284961,1,1,,,0.0,0.0,0.0,0.0,1.0,1.0
2026-06-08,14527.077518608614,14258.421899111818,1,1,,,0.0,0.0,0.0,0.0,1.0,1.0
2026-06-09,14670.337921288057,14377.742234500001,1,1,,,0.0,0.0,0.0,0.0,1.0,1.0
2026-06-10,14813.5983239675,14497.062569888185,1,1,,,0.0,0.0,0.0,0.0,1.0,1.0
2026-06-11,15254.687633659883,14864.441994937013,1,1,,,0.0,0.0,0.0,0.0,1.0,1.0
2026-06-12,15281.077518608614,14886.421899111818,1,1,,,0.0,0.0,0.0,0.0,1.0,1.0
2026-06-15,15247.14746108298,14858.16185119922,1,1,,,0.0,0.0,0.0,0.0,1.0,1.0
2026-06-16,15401.717403557344,14986.901803286622,1,1,,,0.0,0.0,0.0,0.0,1.0,1.0
2026-06-17,15820.187633659883,15335.441994937013,1,1,,,0.0,0.0,0.0,0.0,1.0,1.0
2026-06-18,15779.402252909327,15379.401803286622,0,1,SELL,,39.27035591506958,0.0,0.0,0.0,1.0,1.0
2026-06-19,15779.402252909327,15209.842713625978,0,1,,,0.0,0.0,0.0,0.0,1.0,1.0
2026-06-22,15779.402252909327,15125.062569888185,0,1,,,0.0,0.0,0.0,0.0,1.0,1.0
2026-06-23,15779.402252909327,15012.022378237794,0,1,,,0.0,0.0,0.0,0.0,1.0,1.0
2026-06-24,15779.402252909327,15140.762330325197,0,1,,,0.0,0.0,0.0,0.0,1.0,1.0
2026-06-25,15779.402252909327,15200.421899111818,0,1,,,0.0,0.0,0.0,0.0,1.0,1.0
2026-06-26,15779.402252909327,15294.62165954883,0,1,,,0.0,0.0,0.0,0.0,1.0,1.0
2026-06-29,15779.402252909327,15344.862809451173,0,1,,,0.0,0.0,0.0,0.0,1.0,1.0
2026-06-30,15779.402252909327,15294.62165954883,0,1,,,0.0,0.0,0.0,0.0,1.0,1.0
2026-07-01,15779.402252909327,14968.062569888185,0,1,,,0.0,0.0,0.0,0.0,1.0,1.0
2026-07-02,15779.402252909327,15137.62165954883,0,1,,,0.0,0.0,0.0,0.0,1.0,1.0
2026-07-03,15779.402252909327,15131.342713625978,0,1,,,0.0,0.0,0.0,0.0,1.0,1.0
2026-07-06,15779.402252909327,15150.181947024415,0,1,,,0.0,0.0,0.0,0.0,1.0,1.0
2026-07-07,15779.402252909327,15099.941994937013,0,1,,,0.0,0.0,0.0,0.0,1.0,1.0
2026-07-08,15779.402252909327,15162.742234500001,0,1,,,0.0,0.0,0.0,0.0,1.0,1.0
2026-07-09,15779.402252909327,15329.16185119922,0,1,,,0.0,0.0,0.0,0.0,1.0,1.0
2026-07-10,15779.402252909327,15665.141755374025,0,1,,,0.0,0.0,0.0,0.0,1.0,1.0
2026-07-13,15779.402252909327,15643.16185119922,0,1,,,0.0,0.0,0.0,0.0,1.0,1.0
2026-07-14,15779.402252909327,15677.70204284961,0,1,,,0.0,0.0,0.0,0.0,1.0,1.0
2026-07-15,15779.402252909327,15778.181947024415,0,1,,,0.0,0.0,0.0,0.0,1.0,1.0
2026-07-16,15779.402252909327,15925.762330325197,0,1,,,0.0,0.0,0.0,0.0,1.0,1.0
2026-07-17,15779.402252909327,15906.921899111818,0,1,,,0.0,0.0,0.0,0.0,1.0,1.0
