date,strategy_equity,benchmark_equity,strategy_position,benchmark_position,strategy_trade,benchmark_trade,strategy_trade_price,benchmark_trade_price,strategy_dividend_cash,benchmark_dividend_cash,strategy_split_ratio,benchmark_split_ratio
2022-08-03,10000.0,9750.020038598072,0,1,,BUY,0.0,29.234609313011166,0.0,0.0,1.0,1.0
2022-08-04,9821.94434427996,9630.669908516895,1,1,BUY,,28.66432461833954,0.0,0.0,0.0,1.0,1.0
2022-08-05,9915.904503581718,9722.740064614307,1,1,,,0.0,0.0,0.0,0.0,1.0,1.0
2022-08-08,10267.384583232597,10067.150142663013,1,1,,,0.0,0.0,0.0,0.0,1.0,1.0
2022-08-09,10371.784981486991,10169.450532906543,1,1,,,0.0,0.0,0.0,0.0,1.0,1.0
2022-08-10,10253.464928386406,10053.510480874073,1,1,,,0.0,0.0,0.0,0.0,1.0,1.0
2022-08-11,10545.784981486991,10339.950532906543,1,1,,,0.0,0.0,0.0,0.0,1.0,1.0
2022-08-12,10646.704636333183,10438.840194695484,1,1,,,0.0,0.0,0.0,0.0,1.0,1.0
2022-08-15,10705.864662883476,10496.810220711719,1,1,,,0.0,0.0,0.0,0.0,1.0,1.0
2022-08-16,10615.384583232597,10408.150142663013,1,1,,,0.0,0.0,0.0,0.0,1.0,1.0
2022-08-17,10521.42442393084,10316.0799865656,1,1,,,0.0,0.0,0.0,0.0,1.0,1.0
2022-08-18,10342.568349433768,10140.821591727954,1,1,,,0.0,0.0,360.54366000000005,353.29134500000004,1.0,1.0
2022-08-19,10283.408322883475,10082.851565711719,1,1,,,0.0,0.0,0.0,0.0,1.0,1.0
2022-08-22,10304.288137031424,10103.311383598071,1,1,,,0.0,0.0,0.0,0.0,1.0,1.0
2022-08-23,10283.408322883475,10082.851565711719,1,1,,,0.0,0.0,0.0,0.0,1.0,1.0
2022-08-24,10283.408322883475,10082.851565711719,1,1,,,0.0,0.0,0.0,0.0,1.0,1.0
2022-08-25,10161.60819013201,9963.501435630542,1,1,,,0.0,0.0,0.0,0.0,1.0,1.0
2022-08-26,10248.60819013201,10048.751435630542,1,1,,,0.0,0.0,0.0,0.0,1.0,1.0
2022-08-29,10185.968083930838,9987.3713315656,1,1,,,0.0,0.0,0.0,0.0,1.0,1.0
2022-08-30,10189.448163581717,9990.781409614307,1,1,,,0.0,0.0,0.0,0.0,1.0,1.0
2022-08-31,10164.897888019814,10007.831799857837,0,1,SELL,,28.21588454246521,0.0,0.0,0.0,1.0,1.0
2022-09-01,10164.897888019814,10181.741877906543,0,1,,,0.0,0.0,0.0,0.0,1.0,1.0
2022-09-02,10164.897888019814,10069.211253516894,0,1,,,0.0,0.0,0.0,0.0,1.0,1.0
2022-09-05,10164.897888019814,10144.23166977666,0,1,,,0.0,0.0,0.0,0.0,1.0,1.0
2022-09-06,10164.897888019814,10185.151305549365,0,1,,,0.0,0.0,0.0,0.0,1.0,1.0
2022-09-08,10164.897888019814,10110.131539695483,0,1,,,0.0,0.0,0.0,0.0,1.0,1.0
2022-09-09,10164.897888019814,10103.311383598071,0,1,,,0.0,0.0,0.0,0.0,1.0,1.0
2022-09-12,10164.897888019814,9980.551825874072,0,1,,,0.0,0.0,0.0,0.0,1.0,1.0
2022-09-13,10164.897888019814,10038.521851890308,0,1,,,0.0,0.0,0.0,0.0,1.0,1.0
2022-09-14,10164.897888019814,9953.271851890308,0,1,,,0.0,0.0,0.0,0.0,1.0,1.0
2022-09-15,10164.897888019814,10024.881539695483,0,1,,,0.0,0.0,0.0,0.0,1.0,1.0
2022-09-16,10164.897888019814,10413.6213315656,0,1,,,0.0,0.0,0.0,0.0,1.0,1.0
2022-09-19,10287.897607929586,10529.561383598071,1,1,BUY,,29.39468916034698,0.0,0.0,0.0,1.0,1.0
2022-09-20,10429.347555286764,10669.3713315656,1,1,,,0.0,0.0,0.0,0.0,1.0,1.0
2022-09-21,10381.047765858053,10621.631539695483,1,1,,,0.0,0.0,0.0,0.0,1.0,1.0
2022-09-22,10229.247581608175,10471.591357581836,1,1,,,0.0,0.0,0.0,0.0,1.0,1.0
2022-09-23,10218.898002750753,10461.361773841601,1,1,,,0.0,0.0,0.0,0.0,1.0,1.0
2022-09-26,9998.097555286764,10243.1213315656,1,1,,,0.0,0.0,0.0,0.0,1.0,1.0
2022-09-27,9877.348081714987,10123.771851890308,1,1,,,0.0,0.0,0.0,0.0,1.0,1.0
2022-09-28,9452.997581608175,9704.341357581836,1,1,,,0.0,0.0,0.0,0.0,1.0,1.0
2022-09-29,9267.6386058351,9421.311383598071,0,1,SELL,,26.9065400762558,0.0,0.0,0.0,1.0,1.0
2022-09-30,9267.6386058351,9424.721461646777,0,1,,,0.0,0.0,0.0,0.0,1.0,1.0
2022-10-03,9267.6386058351,9694.111773841601,0,1,,,0.0,0.0,0.0,0.0,1.0,1.0
2022-10-04,9267.6386058351,9523.611773841601,0,1,,,0.0,0.0,0.0,0.0,1.0,1.0
2022-10-05,9267.6386058351,9765.721461646777,0,1,,,0.0,0.0,0.0,0.0,1.0,1.0
2022-10-06,9267.6386058351,9837.331799857837,0,1,,,0.0,0.0,0.0,0.0,1.0,1.0
2022-10-07,9267.6386058351,9966.911513679248,0,1,,,0.0,0.0,0.0,0.0,1.0,1.0
2022-10-10,9267.6386058351,9990.781409614307,0,1,,,0.0,0.0,0.0,0.0,1.0,1.0
2022-10-11,9267.6386058351,9721.391747825366,0,1,,,0.0,0.0,0.0,0.0,1.0,1.0
2022-10-13,9267.6386058351,9970.321591727954,0,1,,,0.0,0.0,0.0,0.0,1.0,1.0
2022-10-14,9267.6386058351,9741.851565711719,0,1,,,0.0,0.0,0.0,0.0,1.0,1.0
2022-10-17,9267.6386058351,9925.991877906543,0,1,,,0.0,0.0,0.0,0.0,1.0,1.0
2022-10-18,9267.6386058351,10188.561383598071,0,1,,,0.0,0.0,0.0,0.0,1.0,1.0
2022-10-19,9267.6386058351,10249.941487663013,0,1,,,0.0,0.0,0.0,0.0,1.0,1.0
2022-10-20,9267.6386058351,10396.571591727954,0,1,,,0.0,0.0,0.0,0.0,1.0,1.0
2022-10-21,9267.6386058351,10307.911513679248,0,1,,,0.0,0.0,0.0,0.0,1.0,1.0
2022-10-24,9267.6386058351,10147.641747825366,0,1,,,0.0,0.0,0.0,0.0,1.0,1.0
2022-10-25,9267.6386058351,9994.191487663013,0,1,,,0.0,0.0,0.0,0.0,1.0,1.0
2022-10-26,9267.6386058351,9925.991877906543,0,1,,,0.0,0.0,0.0,0.0,1.0,1.0
2022-10-27,9267.6386058351,10314.73166977666,0,1,,,0.0,0.0,0.0,0.0,1.0,1.0
2022-10-28,9267.6386058351,10362.471461646777,0,1,,,0.0,0.0,0.0,0.0,1.0,1.0
2022-10-31,9267.6386058351,10488.641747825366,0,1,,,0.0,0.0,0.0,0.0,1.0,1.0
2022-11-01,9267.6386058351,10492.051825874072,0,1,,,0.0,0.0,0.0,0.0,1.0,1.0
2022-11-03,9267.6386058351,10454.54161774419,0,1,,,0.0,0.0,0.0,0.0,1.0,1.0
2022-11-04,9267.6386058351,10519.331799857837,0,1,,,0.0,0.0,0.0,0.0,1.0,1.0
2022-11-07,9267.6386058351,10625.04161774419,0,1,,,0.0,0.0,0.0,0.0,1.0,1.0
2022-11-08,9348.969086188108,10717.111773841601,1,1,BUY,,30.035010457992552,0.0,0.0,0.0,1.0,1.0
2022-11-09,9622.198898810178,11020.601565711719,1,1,,,0.0,0.0,0.0,0.0,1.0,1.0
2022-11-10,9223.09913303259,10577.301825874072,1,1,,,0.0,0.0,0.0,0.0,1.0,1.0
2022-11-11,9355.108641165525,10723.93127953313,1,1,,,0.0,0.0,0.0,0.0,1.0,1.0
2022-11-14,9542.378828543455,10931.941487663013,1,1,,,0.0,0.0,0.0,0.0,1.0,1.0
2022-11-16,9250.729179877073,10607.991877906543,1,1,,,0.0,0.0,0.0,0.0,1.0,1.0
2022-11-17,9220.029062765867,10573.891747825366,1,1,,,0.0,0.0,0.0,0.0,1.0,1.0
2022-11-18,9287.568851965696,10648.911513679248,1,1,,,0.0,0.0,0.0,0.0,1.0,1.0
2022-11-21,9379.668617743284,10751.211253516894,1,1,,,0.0,0.0,0.0,0.0,1.0,1.0
2022-11-22,9321.339039343626,10686.42172180913,1,1,,,0.0,0.0,0.0,0.0,1.0,1.0
2022-11-23,9545.448898810178,10935.351565711719,1,1,,,0.0,0.0,0.0,0.0,1.0,1.0
2022-11-24,9763.418617743284,11177.461253516894,1,1,,,0.0,0.0,0.0,0.0,1.0,1.0
2022-11-25,9453.34913303259,10833.051825874072,1,1,,,0.0,0.0,0.0,0.0,1.0,1.0
2022-11-28,9407.298664587766,10781.901305549365,1,1,,,0.0,0.0,0.0,0.0,1.0,1.0
2022-11-29,9511.678711432249,10897.841357581836,1,1,,,0.0,0.0,0.0,0.0,1.0,1.0
2022-11-30,9643.688805121214,11044.471461646777,1,1,,,0.0,0.0,0.0,0.0,1.0,1.0
2022-12-01,9867.798664587766,11293.401305549365,1,1,,,0.0,0.0,0.0,0.0,1.0,1.0
2022-12-02,10024.36932041052,11467.312034003955,1,1,,,0.0,0.0,0.0,0.0,1.0,1.0
2022-12-05,9800.258875387937,11218.381539695483,1,1,,,0.0,0.0,0.0,0.0,1.0,1.0
2022-12-06,9858.589039343626,11283.17172180913,1,1,,,0.0,0.0,0.0,0.0,1.0,1.0
2022-12-07,9748.068851965696,11160.411513679248,1,1,,,0.0,0.0,0.0,0.0,1.0,1.0
2022-12-08,9689.738688010008,11095.6213315656,1,1,,,0.0,0.0,0.0,0.0,1.0,1.0
2022-12-09,9766.488688010008,11180.8713315656,1,1,,,0.0,0.0,0.0,0.0,1.0,1.0
2022-12-12,9622.198898810178,11020.601565711719,1,1,,,0.0,0.0,0.0,0.0,1.0,1.0
2022-12-13,9548.518969076902,10938.761643760425,1,1,,,0.0,0.0,0.0,0.0,1.0,1.0
2022-12-14,9702.018969076902,11109.261643760425,1,1,,,0.0,0.0,0.0,0.0,1.0,1.0
2022-12-15,9916.918617743284,11347.961253516894,1,1,,,0.0,0.0,0.0,0.0,1.0,1.0
2022-12-16,9953.759460943967,11388.882190101367,1,1,,,0.0,0.0,0.0,0.0,1.0,1.0
2022-12-19,9959.898430365354,11395.701045387012,1,1,,,0.0,0.0,0.0,0.0,1.0,1.0
2022-12-20,10055.068851965696,11501.411513679248,1,1,,,0.0,0.0,0.0,0.0,1.0,1.0
2022-12-21,10300.668617743284,11774.211253516894,1,1,,,0.0,0.0,0.0,0.0,1.0,1.0
2022-12-22,10463.379414099485,11954.942138068896,1,1,,,0.0,0.0,0.0,0.0,1.0,1.0
2022-12-23,10340.57894565466,11818.54161774419,1,1,,,0.0,0.0,0.0,0.0,1.0,1.0
2022-12-26,10236.198898810178,11702.601565711719,1,1,,,0.0,0.0,0.0,0.0,1.0,1.0
2022-12-27,10220.84913303259,11685.551825874072,1,1,,,0.0,0.0,0.0,0.0,1.0,1.0
2022-12-28,10352.859226721555,11832.181929939014,1,1,,,0.0,0.0,0.0,0.0,1.0,1.0
2022-12-29,10377.418617743284,11859.461253516894,1,1,,,0.0,0.0,0.0,0.0,1.0,1.0
2023-01-02,10279.178711432249,11750.341357581836,1,1,,,0.0,0.0,0.0,0.0,1.0,1.0
2023-01-03,9959.898430365354,11395.701045387012,1,1,,,0.0,0.0,0.0,0.0,1.0,1.0
2023-01-04,10009.018383520872,11450.260993354541,1,1,,,0.0,0.0,0.0,0.0,1.0,1.0
2023-01-05,10030.509460943967,11474.132190101367,1,1,,,0.0,0.0,0.0,0.0,1.0,1.0
2023-01-06,10322.158524054319,11798.081149451953,1,1,,,0.0,0.0,0.0,0.0,1.0,1.0
2023-01-09,10371.278477209837,11852.641097419482,1,1,,,0.0,0.0,0.0,0.0,1.0,1.0
2023-01-10,10527.84913303259,12026.551825874072,1,1,,,0.0,0.0,0.0,0.0,1.0,1.0
2023-01-11,10589.249367255003,12094.752086036426,1,1,,,0.0,0.0,0.0,0.0,1.0,1.0
2023-01-12,10555.479179877073,12057.241877906543,1,1,,,0.0,0.0,0.0,0.0,1.0,1.0
2023-01-13,10527.84913303259,12026.551825874072,1,1,,,0.0,0.0,0.0,0.0,1.0,1.0
2023-01-16,10429.609226721555,11917.431929939014,1,1,,,0.0,0.0,0.0,0.0,1.0,1.0
2023-01-17,10583.109226721555,12087.931929939014,1,1,,,0.0,0.0,0.0,0.0,1.0,1.0
2023-01-18,10669.068851965696,12183.411513679248,1,1,,,0.0,0.0,0.0,0.0,1.0,1.0
2023-01-19,10785.729179877073,12312.991877906543,1,1,,,0.0,0.0,0.0,0.0,1.0,1.0
2023-01-20,10785.729179877073,12312.991877906543,1,1,,,0.0,0.0,0.0,0.0,1.0,1.0
2023-01-23,10871.688805121214,12408.471461646777,1,1,,,0.0,0.0,0.0,0.0,1.0,1.0
2023-01-24,10988.34913303259,12538.051825874072,1,1,,,0.0,0.0,0.0,0.0,1.0,1.0
2023-01-25,11442.708992499143,13042.73166977666,1,1,,,0.0,0.0,0.0,0.0,1.0,1.0
2023-01-26,11405.86932041052,13001.812034003955,1,1,,,0.0,0.0,0.0,0.0,1.0,1.0
2023-01-27,11470.339039343626,13073.42172180913,1,1,,,0.0,0.0,0.0,0.0,1.0,1.0
2023-01-30,11663.749367255003,13288.252086036426,1,1,,,0.0,0.0,0.0,0.0,1.0,1.0
2023-01-31,11626.908524054319,13247.331149451953,1,1,,,0.0,0.0,0.0,0.0,1.0,1.0
2023-02-01,11273.859226721555,12855.181929939014,1,1,,,0.0,0.0,0.0,0.0,1.0,1.0
2023-02-02,11233.948898810178,12810.851565711719,1,1,,,0.0,0.0,0.0,0.0,1.0,1.0
2023-02-03,11203.249367255003,12776.752086036426,1,1,,,0.0,0.0,0.0,0.0,1.0,1.0
2023-02-06,11258.509460943967,12838.132190101367,1,1,,,0.0,0.0,0.0,0.0,1.0,1.0
2023-02-07,11332.188805121214,12919.971461646777,1,1,,,0.0,0.0,0.0,0.0,1.0,1.0
2023-02-08,11402.798664587766,12998.401305549365,1,1,,,0.0,0.0,0.0,0.0,1.0,1.0
2023-02-09,10807.219086188108,12336.861773841601,1,1,,,0.0,0.0,0.0,0.0,1.0,1.0
2023-02-10,11065.09913303259,12623.301825874072,1,1,,,0.0,0.0,0.0,0.0,1.0,1.0
2023-02-13,11187.898430365354,12759.701045387012,1,1,,,0.0,0.0,0.0,0.0,1.0,1.0
2023-02-14,11255.438805121214,12834.721461646777,1,1,,,0.0,0.0,0.0,0.0,1.0,1.0
2023-02-15,11331.751616209836,12919.485854419483,1,1,,,0.0,0.0,576.723139,640.594757,1.0,1.0
2023-02-16,11463.761709898801,13066.115958484424,1,1,,,0.0,0.0,0.0,0.0,1.0,1.0
2023-02-17,11512.881663054319,13120.675906451954,1,1,,,0.0,0.0,0.0,0.0,1.0,1.0
2023-02-22,11460.692225188108,13062.706530841602,1,1,,,0.0,0.0,0.0,0.0,1.0,1.0
2023-02-23,11399.291990965696,12994.506270679249,1,1,,,0.0,0.0,0.0,0.0,1.0,1.0
2023-02-24,11073.871569365354,12633.045802387012,1,1,,,0.0,0.0,0.0,0.0,1.0,1.0
2023-02-27,11132.202318877073,12697.836634906544,1,1,,,0.0,0.0,0.0,0.0,1.0,1.0
2023-02-28,11107.641756743284,12670.556010516895,1,1,,,0.0,0.0,0.0,0.0,1.0,1.0
2023-03-01,11081.39608491567,12602.355750354542,0,1,SELL,,34.19289408493042,0.0,0.0,0.0,1.0,1.0
2023-03-02,11081.39608491567,12793.316218646778,0,1,,,0.0,0.0,0.0,0.0,1.0,1.0
2023-03-03,11081.39608491567,12622.816218646778,0,1,,,0.0,0.0,0.0,0.0,1.0,1.0
2023-03-06,11081.39608491567,12899.026686939014,0,1,,,0.0,0.0,0.0,0.0,1.0,1.0
2023-03-07,11081.39608491567,12895.615958484424,0,1,,,0.0,0.0,0.0,0.0,1.0,1.0
2023-03-08,11081.39608491567,12892.206530841602,0,1,,,0.0,0.0,0.0,0.0,1.0,1.0
2023-03-09,11081.39608491567,12796.726947101368,0,1,,,0.0,0.0,0.0,0.0,1.0,1.0
2023-03-10,11081.39608491567,12602.355750354542,0,1,,,0.0,0.0,0.0,0.0,1.0,1.0
2023-03-13,11081.39608491567,12339.786895068897,0,1,,,0.0,0.0,0.0,0.0,1.0,1.0
2023-03-14,11081.39608491567,12343.19632271172,0,1,,,0.0,0.0,0.0,0.0,1.0,1.0
2023-03-15,11081.39608491567,12206.795802387012,0,1,,,0.0,0.0,0.0,0.0,1.0,1.0
2023-03-16,11081.39608491567,12257.94632271172,0,1,,,0.0,0.0,0.0,0.0,1.0,1.0
2023-03-17,11081.39608491567,12060.165698322071,0,1,,,0.0,0.0,0.0,0.0,1.0,1.0
2023-03-20,11081.39608491567,12002.19632271172,0,1,,,0.0,0.0,0.0,0.0,1.0,1.0
2023-03-21,11081.39608491567,12022.656791003956,0,1,,,0.0,0.0,0.0,0.0,1.0,1.0
2023-03-22,11081.39608491567,12053.346843036426,0,1,,,0.0,0.0,0.0,0.0,1.0,1.0
2023-03-23,11081.39608491567,12138.596843036426,0,1,,,0.0,0.0,0.0,0.0,1.0,1.0
2023-03-24,11081.39608491567,12281.816218646778,0,1,,,0.0,0.0,0.0,0.0,1.0,1.0
2023-03-27,11081.39608491567,12186.336634906544,0,1,,,0.0,0.0,0.0,0.0,1.0,1.0
2023-03-28,11081.39608491567,12380.706530841602,0,1,,,0.0,0.0,0.0,0.0,1.0,1.0
2023-03-29,11081.39608491567,12196.566218646778,0,1,,,0.0,0.0,0.0,0.0,1.0,1.0
2023-03-30,11081.39608491567,12111.316218646778,0,1,,,0.0,0.0,0.0,0.0,1.0,1.0
2023-03-31,11081.39608491567,12090.855750354542,0,1,,,0.0,0.0,0.0,0.0,1.0,1.0
2023-04-03,11081.39608491567,11988.556010516895,0,1,,,0.0,0.0,0.0,0.0,1.0,1.0
2023-04-04,11081.39608491567,12305.686114581837,0,1,,,0.0,0.0,0.0,0.0,1.0,1.0
2023-04-05,11081.39608491567,12138.596843036426,0,1,,,0.0,0.0,0.0,0.0,1.0,1.0
2023-04-06,11081.39608491567,12615.996062549366,0,1,,,0.0,0.0,0.0,0.0,1.0,1.0
2023-04-10,11081.39608491567,12806.956530841602,0,1,,,0.0,0.0,0.0,0.0,1.0,1.0
2023-04-11,11081.39608491567,12929.716738971485,0,1,,,0.0,0.0,0.0,0.0,1.0,1.0
2023-04-12,11126.020007697196,13066.115958484424,1,1,BUY,,35.15756938934326,0.0,0.0,0.0,1.0,1.0
2023-04-13,10987.860438910575,12916.07642677666,1,1,,,0.0,0.0,0.0,0.0,1.0,1.0
2023-04-14,10978.440822211356,12905.846843036426,1,1,,,0.0,0.0,0.0,0.0,1.0,1.0
2023-04-17,10884.239863959403,12803.545802387012,1,1,,,0.0,0.0,0.0,0.0,1.0,1.0
2023-04-18,10887.38053473577,12806.956530841602,1,1,,,0.0,0.0,0.0,0.0,1.0,1.0
2023-04-19,10877.960918036551,12796.726947101368,1,1,,,0.0,0.0,0.0,0.0,1.0,1.0
2023-04-20,10934.479816046805,12858.105750354542,1,1,,,0.0,0.0,0.0,0.0,1.0,1.0
2023-04-24,10868.540103522391,12786.496062549366,1,1,,,0.0,0.0,0.0,0.0,1.0,1.0
2023-04-25,10931.34034308538,12854.69632271172,1,1,,,0.0,0.0,0.0,0.0,1.0,1.0
2023-04-26,10937.620486823173,12861.516478809132,1,1,,,0.0,0.0,0.0,0.0,1.0,1.0
2023-04-27,10808.88053473577,12721.706530841602,1,1,,,0.0,0.0,0.0,0.0,1.0,1.0
2023-04-28,10793.180774298758,12704.656791003956,1,1,,,0.0,0.0,0.0,0.0,1.0,1.0
2023-05-02,10764.92072638616,12673.966738971485,1,1,,,0.0,0.0,0.0,0.0,1.0,1.0
2023-05-03,10545.120486823173,12435.266478809132,1,1,,,0.0,0.0,0.0,0.0,1.0,1.0
2023-05-04,10419.520007697196,12298.865958484424,1,1,,,0.0,0.0,0.0,0.0,1.0,1.0
2023-05-05,10532.560199347587,12421.626166614307,1,1,,,0.0,0.0,0.0,0.0,1.0,1.0
2023-05-08,10516.860438910575,12404.57642677666,1,1,,,0.0,0.0,0.0,0.0,1.0,1.0
2023-05-09,10604.780055609794,12500.056010516895,1,1,,,0.0,0.0,0.0,0.0,1.0,1.0
2023-05-10,10633.040103522391,12530.746062549366,1,1,,,0.0,0.0,0.0,0.0,1.0,1.0
2023-05-11,10686.42072638616,12588.716738971485,1,1,,,0.0,0.0,0.0,0.0,1.0,1.0
2023-05-12,10746.080295172782,12653.506270679249,1,1,,,0.0,0.0,0.0,0.0,1.0,1.0
2023-05-15,10111.800151434989,11964.686114581837,1,1,,,0.0,0.0,0.0,0.0,1.0,1.0
2023-05-16,10114.940822211356,11968.096843036426,1,1,,,0.0,0.0,0.0,0.0,1.0,1.0
2023-05-17,10058.42012747869,11906.716088565601,1,1,,,0.0,0.0,0.0,0.0,1.0,1.0
2023-05-18,10033.333716597492,11685.066218646778,0,1,SELL,,31.954014313697815,0.0,0.0,0.0,1.0,1.0
2023-05-19,10033.333716597492,11541.846192630543,0,1,,,0.0,0.0,0.0,0.0,1.0,1.0
2023-05-22,10033.333716597492,11552.07642677666,0,1,,,0.0,0.0,0.0,0.0,1.0,1.0
2023-05-23,10033.333716597492,11497.516478809132,0,1,,,0.0,0.0,0.0,0.0,1.0,1.0
2023-05-24,10033.333716597492,11702.116608890308,0,1,,,0.0,0.0,0.0,0.0,1.0,1.0
2023-05-25,10033.333716597492,11852.156140598072,0,1,,,0.0,0.0,0.0,0.0,1.0,1.0
2023-05-26,10033.333716597492,11882.846192630543,0,1,,,0.0,0.0,0.0,0.0,1.0,1.0
2023-05-29,10033.333716597492,11947.63637474419,0,1,,,0.0,0.0,0.0,0.0,1.0,1.0
2023-05-30,10033.333716597492,11811.236504825367,0,1,,,0.0,0.0,0.0,0.0,1.0,1.0
2023-05-31,10033.333716597492,11552.07642677666,0,1,,,0.0,0.0,0.0,0.0,1.0,1.0
2023-06-01,10033.333716597492,11412.266478809132,0,1,,,0.0,0.0,0.0,0.0,1.0,1.0
2023-06-02,10033.333716597492,11572.536244663013,0,1,,,0.0,0.0,0.0,0.0,1.0,1.0
2023-06-05,10033.333716597492,11589.586634906544,0,1,,,0.0,0.0,0.0,0.0,1.0,1.0
2023-06-06,10033.333716597492,11572.536244663013,0,1,,,0.0,0.0,0.0,0.0,1.0,1.0
2023-06-07,10033.333716597492,11572.536244663013,0,1,,,0.0,0.0,0.0,0.0,1.0,1.0
2023-06-09,10033.333716597492,11599.816218646778,0,1,,,0.0,0.0,0.0,0.0,1.0,1.0
2023-06-12,10033.333716597492,11517.976296695484,0,1,,,0.0,0.0,0.0,0.0,1.0,1.0
2023-06-13,10033.333716597492,11442.956530841602,0,1,,,0.0,0.0,0.0,0.0,1.0,1.0
2023-06-14,10033.333716597492,11415.676556857838,0,1,,,0.0,0.0,0.0,0.0,1.0,1.0
2023-06-15,10033.333716597492,11432.726296695484,0,1,,,0.0,0.0,0.0,0.0,1.0,1.0
2023-06-16,10033.333716597492,11388.396582874073,0,1,,,0.0,0.0,0.0,0.0,1.0,1.0
2023-06-19,10033.333716597492,11320.19632271172,0,1,,,0.0,0.0,0.0,0.0,1.0,1.0
2023-06-20,10033.333716597492,11313.376166614307,0,1,,,0.0,0.0,0.0,0.0,1.0,1.0
2023-06-21,10033.333716597492,11350.88637474419,0,1,,,0.0,0.0,0.0,0.0,1.0,1.0
2023-06-22,10033.333716597492,11367.936114581837,0,1,,,0.0,0.0,0.0,0.0,1.0,1.0
2023-06-23,10033.333716597492,11436.13637474419,0,1,,,0.0,0.0,0.0,0.0,1.0,1.0
2023-06-26,10033.333716597492,11132.646582874073,0,1,,,0.0,0.0,0.0,0.0,1.0,1.0
2023-06-27,10033.333716597492,11272.456530841602,0,1,,,0.0,0.0,0.0,0.0,1.0,1.0
2023-06-28,10033.333716597492,11419.086634906544,0,1,,,0.0,0.0,0.0,0.0,1.0,1.0
2023-06-29,10033.333716597492,11500.926556857838,0,1,,,0.0,0.0,0.0,0.0,1.0,1.0
2023-06-30,10033.333716597492,11497.516478809132,0,1,,,0.0,0.0,0.0,0.0,1.0,1.0
2023-07-03,10033.333716597492,11749.856400760425,0,1,,,0.0,0.0,0.0,0.0,1.0,1.0
2023-07-04,10024.17529628892,11790.77603653313,1,1,BUY,,31.595789923667905,0.0,0.0,0.0,1.0,1.0
2023-07-05,9986.255633813334,11749.856400760425,1,1,,,0.0,0.0,0.0,0.0,1.0,1.0
2023-07-06,9907.255633813334,11664.606400760425,1,1,,,0.0,0.0,0.0,0.0,1.0,1.0
2023-07-07,9926.215465051127,11685.066218646778,1,1,,,0.0,0.0,0.0,0.0,1.0,1.0
2023-07-10,9881.975657922221,11637.32642677666,1,1,,,0.0,0.0,0.0,0.0,1.0,1.0
2023-07-11,9856.695682031108,11610.046452792896,1,1,,,0.0,0.0,0.0,0.0,1.0,1.0
2023-07-12,9742.935489160014,11487.286244663013,1,1,,,0.0,0.0,0.0,0.0,1.0,1.0
2023-07-13,9717.6555132689,11460.006270679249,1,1,,,0.0,0.0,0.0,0.0,1.0,1.0
2023-07-14,9648.135730248881,11384.986504825367,1,1,,,0.0,0.0,0.0,0.0,1.0,1.0
2023-07-17,9660.775416833354,11398.626166614307,1,1,,,0.0,0.0,0.0,0.0,1.0,1.0
2023-07-18,9550.17529628892,11279.27603653313,1,1,,,0.0,0.0,0.0,0.0,1.0,1.0
2023-07-19,9565.975657922221,11296.32642677666,1,1,,,0.0,0.0,0.0,0.0,1.0,1.0
2023-07-20,9733.455272180034,11477.056010516895,1,1,,,0.0,0.0,0.0,0.0,1.0,1.0
2023-07-21,9840.895320397807,11592.996062549366,1,1,,,0.0,0.0,0.0,0.0,1.0,1.0
2023-07-24,9973.615344506694,11736.216088565601,1,1,,,0.0,0.0,0.0,0.0,1.0,1.0
2023-07-25,9885.135730248881,11640.736504825367,1,1,,,0.0,0.0,0.0,0.0,1.0,1.0
2023-07-26,9951.49544094224,11712.346192630543,1,1,,,0.0,0.0,0.0,0.0,1.0,1.0
2023-07-27,9784.015826684428,11531.616608890308,1,1,,,0.0,0.0,0.0,0.0,1.0,1.0
2023-07-28,9910.415706139995,11668.016478809132,1,1,,,0.0,0.0,0.0,0.0,1.0,1.0
2023-07-31,9863.015826684428,11616.866608890308,1,1,,,0.0,0.0,0.0,0.0,1.0,1.0
2023-08-01,9907.255633813334,11664.606400760425,1,1,,,0.0,0.0,0.0,0.0,1.0,1.0
2023-08-02,9913.575778466655,11671.426556857838,1,1,,,0.0,0.0,0.0,0.0,1.0,1.0
2023-08-03,9926.215465051127,11685.066218646778,1,1,,,0.0,0.0,0.0,0.0,1.0,1.0
2023-08-04,9986.255633813334,11749.856400760425,1,1,,,0.0,0.0,0.0,0.0,1.0,1.0
2023-08-07,10223.255031091167,12005.605750354542,1,1,,,0.0,0.0,0.0,0.0,1.0,1.0
2023-08-08,10156.895320397807,11933.996062549366,1,1,,,0.0,0.0,0.0,0.0,1.0,1.0
2023-08-09,10191.6555132689,11971.506270679249,1,1,,,0.0,0.0,0.0,0.0,1.0,1.0
2023-08-10,10220.095561486674,12002.19632271172,1,1,,,0.0,0.0,0.0,0.0,1.0,1.0
2023-08-11,10289.615947228862,12077.216738971485,1,1,,,0.0,0.0,0.0,0.0,1.0,1.0
2023-08-14,10384.415706139995,12179.516478809132,1,1,,,0.0,0.0,0.0,0.0,1.0,1.0
2023-08-15,10314.895320397807,12104.496062549366,1,1,,,0.0,0.0,0.0,0.0,1.0,1.0
2023-08-16,10311.735850793315,12101.086634906544,1,1,,,0.0,0.0,0.0,0.0,1.0,1.0
2023-08-17,9909.6688052689,11667.210487679247,1,1,,,0.0,0.0,508.013292,548.204217,1.0,1.0
2023-08-18,9886.246777949396,11742.23025353313,0,1,SELL,,29.645169847488404,0.0,0.0,0.0,1.0,1.0
2023-08-21,9886.246777949396,11745.640331581835,0,1,,,0.0,0.0,0.0,0.0,1.0,1.0
2023-08-22,9886.246777949396,11769.510227516894,0,1,,,0.0,0.0,0.0,0.0,1.0,1.0
2023-08-23,9886.246777949396,11834.300409630541,0,1,,,0.0,0.0,0.0,0.0,1.0,1.0
2023-08-24,9886.246777949396,11899.090591744189,0,1,,,0.0,0.0,0.0,0.0,1.0,1.0
2023-08-25,9886.246777949396,11899.090591744189,0,1,,,0.0,0.0,0.0,0.0,1.0,1.0
2023-08-28,9886.246777949396,12042.310617760424,0,1,,,0.0,0.0,0.0,0.0,1.0,1.0
2023-08-29,9886.246777949396,12141.200279549364,0,1,,,0.0,0.0,0.0,0.0,1.0,1.0
2023-08-30,9886.246777949396,12052.540851906542,0,1,,,0.0,0.0,0.0,0.0,1.0,1.0
2023-08-31,9886.246777949396,11912.73025353313,0,1,,,0.0,0.0,0.0,0.0,1.0,1.0
2023-09-01,9886.246777949396,12134.380773857836,0,1,,,0.0,0.0,0.0,0.0,1.0,1.0
2023-09-04,9886.246777949396,12253.73025353313,0,1,,,0.0,0.0,0.0,0.0,1.0,1.0
2023-09-05,9886.246777949396,12233.270435646777,0,1,,,0.0,0.0,0.0,0.0,1.0,1.0
2023-09-06,9886.246777949396,12154.840591744189,0,1,,,0.0,0.0,0.0,0.0,1.0,1.0
2023-09-08,9886.246777949396,12161.6607478416,0,1,,,0.0,0.0,0.0,0.0,1.0,1.0
2023-09-11,9886.246777949396,12393.540851906542,0,1,,,0.0,0.0,0.0,0.0,1.0,1.0
2023-09-12,9886.246777949396,12448.100799874072,0,1,,,0.0,0.0,0.0,0.0,1.0,1.0
2023-09-13,9886.246777949396,12437.870565727953,0,1,,,0.0,0.0,0.0,0.0,1.0,1.0
2023-09-14,9886.246777949396,12362.850799874072,0,1,,,0.0,0.0,0.0,0.0,1.0,1.0
2023-09-15,9886.246777949396,12342.390331581835,0,1,,,0.0,0.0,0.0,0.0,1.0,1.0
2023-09-18,9886.246777949396,12410.590591744189,0,1,,,0.0,0.0,0.0,0.0,1.0,1.0
2023-09-19,9886.246777949396,12356.03064377666,0,1,,,0.0,0.0,0.0,0.0,1.0,1.0
2023-09-20,9886.246777949396,12533.350799874072,0,1,,,0.0,0.0,0.0,0.0,1.0,1.0
2023-09-21,9886.246777949396,12383.310617760424,0,1,,,0.0,0.0,0.0,0.0,1.0,1.0
2023-09-22,9886.246777949396,12376.490461663012,0,1,,,0.0,0.0,0.0,0.0,1.0,1.0
2023-09-25,9886.246777949396,12475.380123451952,0,1,,,0.0,0.0,0.0,0.0,1.0,1.0
2023-09-26,9886.246777949396,12407.180513695483,0,1,,,0.0,0.0,0.0,0.0,1.0,1.0
2023-09-27,9886.246777949396,12284.4203055656,0,1,,,0.0,0.0,0.0,0.0,1.0,1.0
2023-09-28,9886.246777949396,12362.850799874072,0,1,,,0.0,0.0,0.0,0.0,1.0,1.0
2023-09-29,9886.246777949396,12195.760227516894,0,1,,,0.0,0.0,0.0,0.0,1.0,1.0
2023-10-02,9886.246777949396,12444.690721825365,0,1,,,0.0,0.0,0.0,0.0,1.0,1.0
2023-10-03,9886.246777949396,12471.97069580913,0,1,,,0.0,0.0,0.0,0.0,1.0,1.0
2023-10-04,9886.246777949396,12533.350799874072,0,1,,,0.0,0.0,0.0,0.0,1.0,1.0
2023-10-05,9886.246777949396,12444.690721825365,0,1,,,0.0,0.0,0.0,0.0,1.0,1.0
2023-10-06,9886.246777949396,12489.020435646777,0,1,,,0.0,0.0,0.0,0.0,1.0,1.0
2023-10-09,9886.246777949396,12424.23025353313,0,1,,,0.0,0.0,0.0,0.0,1.0,1.0
2023-10-10,9886.246777949396,12338.98025353313,0,1,,,0.0,0.0,0.0,0.0,1.0,1.0
2023-10-11,9886.246777949396,12379.900539711718,0,1,,,0.0,0.0,0.0,0.0,1.0,1.0
2023-10-13,9886.246777949396,12226.450279549364,0,1,,,0.0,0.0,0.0,0.0,1.0,1.0
2023-10-16,9886.246777949396,12359.440721825365,0,1,,,0.0,0.0,0.0,0.0,1.0,1.0
2023-10-17,9886.246777949396,12332.1607478416,0,1,,,0.0,0.0,0.0,0.0,1.0,1.0
2023-10-18,9886.246777949396,12427.640331581835,0,1,,,0.0,0.0,0.0,0.0,1.0,1.0
2023-10-19,9886.246777949396,12417.4107478416,0,1,,,0.0,0.0,0.0,0.0,1.0,1.0
2023-10-20,9886.246777949396,12274.190721825365,0,1,,,0.0,0.0,0.0,0.0,1.0,1.0
2023-10-23,9886.246777949396,12246.9107478416,0,1,,,0.0,0.0,0.0,0.0,1.0,1.0
2023-10-24,9886.246777949396,12260.550409630541,0,1,,,0.0,0.0,0.0,0.0,1.0,1.0
2023-10-25,9886.246777949396,12216.22069580913,0,1,,,0.0,0.0,0.0,0.0,1.0,1.0
2023-10-26,9886.246777949396,12236.680513695483,0,1,,,0.0,0.0,0.0,0.0,1.0,1.0
2023-10-27,9886.246777949396,12107.100799874072,0,1,,,0.0,0.0,0.0,0.0,1.0,1.0
2023-10-30,9886.246777949396,11970.700279549364,0,1,,,0.0,0.0,0.0,0.0,1.0,1.0
2023-10-31,9886.246777949396,12042.310617760424,0,1,,,0.0,0.0,0.0,0.0,1.0,1.0
2023-11-01,9886.246777949396,12195.760227516894,0,1,,,0.0,0.0,0.0,0.0,1.0,1.0
2023-11-03,9886.246777949396,12277.600799874072,0,1,,,0.0,0.0,0.0,0.0,1.0,1.0
2023-11-06,9886.246777949396,12386.72069580913,0,1,,,0.0,0.0,0.0,0.0,1.0,1.0
2023-11-07,9886.246777949396,12431.050409630541,0,1,,,0.0,0.0,0.0,0.0,1.0,1.0
2023-11-08,9886.246777949396,12431.050409630541,0,1,,,0.0,0.0,0.0,0.0,1.0,1.0
2023-11-09,9886.246777949396,12226.450279549364,0,1,,,0.0,0.0,0.0,0.0,1.0,1.0
2023-11-10,9886.246777949396,12226.450279549364,0,1,,,0.0,0.0,0.0,0.0,1.0,1.0
2023-11-13,9886.246777949396,12267.370565727953,0,1,,,0.0,0.0,0.0,0.0,1.0,1.0
2023-11-14,9886.246777949396,12345.800409630541,0,1,,,0.0,0.0,0.0,0.0,1.0,1.0
2023-11-16,9886.246777949396,12512.890331581835,0,1,,,0.0,0.0,0.0,0.0,1.0,1.0
2023-11-17,9886.246777949396,12390.130773857836,0,1,,,0.0,0.0,0.0,0.0,1.0,1.0
2023-11-20,9886.246777949396,12458.330383614306,0,1,,,0.0,0.0,0.0,0.0,1.0,1.0
2023-11-21,9886.246777949396,12434.460487679247,0,1,,,0.0,0.0,0.0,0.0,1.0,1.0
2023-11-22,9886.246777949396,12475.380123451952,0,1,,,0.0,0.0,0.0,0.0,1.0,1.0
2023-11-23,9886.246777949396,12499.250019387011,0,1,,,0.0,0.0,0.0,0.0,1.0,1.0
2023-11-24,9886.246777949396,12434.460487679247,0,1,,,0.0,0.0,0.0,0.0,1.0,1.0
2023-11-27,9886.246777949396,12366.260227516894,0,1,,,0.0,0.0,0.0,0.0,1.0,1.0
2023-11-28,9886.246777949396,12400.36035759807,0,1,,,0.0,0.0,0.0,0.0,1.0,1.0
2023-11-29,9886.246777949396,12277.600799874072,0,1,,,0.0,0.0,0.0,0.0,1.0,1.0
2023-11-30,9886.246777949396,12226.450279549364,0,1,,,0.0,0.0,0.0,0.0,1.0,1.0
2023-12-01,9886.246777949396,12090.050409630541,0,1,,,0.0,0.0,0.0,0.0,1.0,1.0
2023-12-04,9886.246777949396,12062.770435646777,0,1,,,0.0,0.0,0.0,0.0,1.0,1.0
2023-12-05,9886.246777949396,12021.850799874072,0,1,,,0.0,0.0,0.0,0.0,1.0,1.0
2023-12-06,9886.246777949396,12015.03064377666,0,1,,,0.0,0.0,0.0,0.0,1.0,1.0
2023-12-07,9886.246777949396,12158.250669792895,0,1,,,0.0,0.0,0.0,0.0,1.0,1.0
2023-12-08,9886.246777949396,12161.6607478416,0,1,,,0.0,0.0,0.0,0.0,1.0,1.0
2023-12-11,9886.246777949396,12185.53064377666,0,1,,,0.0,0.0,0.0,0.0,1.0,1.0
2023-12-12,9886.246777949396,12195.760227516894,0,1,,,0.0,0.0,0.0,0.0,1.0,1.0
2023-12-13,9886.246777949396,12141.200279549364,0,1,,,0.0,0.0,0.0,0.0,1.0,1.0
2023-12-14,9886.246777949396,12342.390331581835,0,1,,,0.0,0.0,0.0,0.0,1.0,1.0
2023-12-15,9886.246777949396,12489.020435646777,0,1,,,0.0,0.0,0.0,0.0,1.0,1.0
2023-12-18,9886.246777949396,12645.880123451952,0,1,,,0.0,0.0,0.0,0.0,1.0,1.0
2023-12-19,10038.65199064166,12932.320175484423,1,1,BUY,,32.79638877868652,0.0,0.0,0.0,1.0,1.0
2023-12-20,9972.652768839902,12857.301060036425,1,1,,,0.0,0.0,0.0,0.0,1.0,1.0
2023-12-21,9972.652768839902,12857.301060036425,1,1,,,0.0,0.0,0.0,0.0,1.0,1.0
2023-12-22,10035.652494181699,12928.9107478416,1,1,,,0.0,0.0,0.0,0.0,1.0,1.0
2023-12-26,10110.652494181699,13014.1607478416,1,1,,,0.0,0.0,0.0,0.0,1.0,1.0
2023-12-27,10041.6526315108,12935.730903939013,1,1,,,0.0,0.0,0.0,0.0,1.0,1.0
2023-12-28,10122.652768839902,13027.801060036425,1,1,,,0.0,0.0,0.0,0.0,1.0,1.0
2024-01-02,10194.652127970761,13109.640331581835,1,1,,,0.0,0.0,0.0,0.0,1.0,1.0
2024-01-03,10149.65281461627,13058.491112068896,1,1,,,0.0,0.0,0.0,0.0,1.0,1.0
2024-01-04,10221.652173747128,13140.330383614306,1,1,,,0.0,0.0,0.0,0.0,1.0,1.0
2024-01-05,10131.652402628964,13038.03064377666,1,1,,,0.0,0.0,0.0,0.0,1.0,1.0
2024-01-08,10083.652448405332,12983.47069580913,1,1,,,0.0,0.0,0.0,0.0,1.0,1.0
2024-01-09,10047.652768839902,12942.551060036425,1,1,,,0.0,0.0,0.0,0.0,1.0,1.0
2024-01-10,9984.651899088925,12870.940071419482,1,1,,,0.0,0.0,0.0,0.0,1.0,1.0
2024-01-11,10011.651944865293,12901.630123451952,1,1,,,0.0,0.0,0.0,0.0,1.0,1.0
2024-01-12,10029.652356852597,12922.090591744189,1,1,,,0.0,0.0,0.0,0.0,1.0,1.0
2024-01-15,10134.651899088925,13041.440071419482,1,1,,,0.0,0.0,0.0,0.0,1.0,1.0
2024-01-16,10071.652173747128,12969.830383614306,1,1,,,0.0,0.0,0.0,0.0,1.0,1.0
2024-01-17,10200.652265299863,13116.460487679247,1,1,,,0.0,0.0,0.0,0.0,1.0,1.0
2024-01-18,10341.6526315108,13276.730903939013,1,1,,,0.0,0.0,0.0,0.0,1.0,1.0
2024-01-19,10392.652082194394,13334.700279549364,1,1,,,0.0,0.0,0.0,0.0,1.0,1.0
2024-01-22,10416.6526315108,13361.980903939013,1,1,,,0.0,0.0,0.0,0.0,1.0,1.0
2024-01-23,10380.651807536191,13321.05996735454,1,1,,,0.0,0.0,0.0,0.0,1.0,1.0
2024-01-24,10299.65281461627,13228.991112068896,1,1,,,0.0,0.0,0.0,0.0,1.0,1.0
2024-01-25,10149.65281461627,13058.491112068896,1,1,,,0.0,0.0,0.0,0.0,1.0,1.0
2024-01-26,10146.652173747128,13055.080383614306,1,1,,,0.0,0.0,0.0,0.0,1.0,1.0
2024-01-29,10254.652356852597,13177.840591744189,1,1,,,0.0,0.0,0.0,0.0,1.0,1.0
2024-01-30,10176.652860392636,13089.181164101366,1,1,,,0.0,0.0,0.0,0.0,1.0,1.0
2024-01-31,10302.65231107623,13232.400539711718,1,1,,,0.0,0.0,0.0,0.0,1.0,1.0
2024-02-01,10320.652723063535,13252.861008003954,1,1,,,0.0,0.0,0.0,0.0,1.0,1.0
2024-02-02,10254.652356852597,13177.840591744189,1,1,,,0.0,0.0,0.0,0.0,1.0,1.0
2024-02-05,10392.652082194394,13334.700279549364,1,1,,,0.0,0.0,0.0,0.0,1.0,1.0
2024-02-06,10677.65231107623,13658.650539711718,1,1,,,0.0,0.0,0.0,0.0,1.0,1.0
2024-02-07,10779.652356852597,13774.590591744189,1,1,,,0.0,0.0,0.0,0.0,1.0,1.0
2024-02-08,10377.65231107623,13317.650539711718,1,1,,,0.0,0.0,0.0,0.0,1.0,1.0
2024-02-09,10243.039285734434,13164.640400906543,1,1,,,0.0,0.0,378.3867,430.099549,1.0,1.0
2024-02-14,10285.039102628965,13212.38019277666,1,1,,,0.0,0.0,0.0,0.0,1.0,1.0
2024-02-15,10309.038507536192,13239.65951635454,1,1,,,0.0,0.0,0.0,0.0,1.0,1.0
2024-02-16,10204.038965299864,13120.310036679248,1,1,,,0.0,0.0,0.0,0.0,1.0,1.0
2024-02-19,10215.463479780454,13157.82024480913,0,1,SELL,,32.76360877990723,0.0,0.0,0.0,1.0,1.0
2024-02-20,10215.463479780454,13273.760296841601,0,1,,,0.0,0.0,0.0,0.0,1.0,1.0
2024-02-21,10215.463479780454,13202.150609036426,0,1,,,0.0,0.0,0.0,0.0,1.0,1.0
2024-02-22,10215.463479780454,13359.010296841601,0,1,,,0.0,0.0,0.0,0.0,1.0,1.0
2024-02-23,10215.463479780454,13253.299828549365,0,1,,,0.0,0.0,0.0,0.0,1.0,1.0
2024-02-26,10215.463479780454,13260.119984646777,0,1,,,0.0,0.0,0.0,0.0,1.0,1.0
2024-02-27,10215.463479780454,13307.859776516894,0,1,,,0.0,0.0,0.0,0.0,1.0,1.0
2024-02-28,10215.463479780454,13423.799828549365,0,1,,,0.0,0.0,0.0,0.0,1.0,1.0
2024-02-29,10215.463479780454,13352.19014074419,0,1,,,0.0,0.0,0.0,0.0,1.0,1.0
2024-03-01,10215.463479780454,13208.96946432207,0,1,,,0.0,0.0,0.0,0.0,1.0,1.0
2024-03-04,10215.463479780454,13205.560036679248,0,1,,,0.0,0.0,0.0,0.0,1.0,1.0
2024-03-05,10215.463479780454,13188.510296841601,0,1,,,0.0,0.0,0.0,0.0,1.0,1.0
2024-03-06,10215.463479780454,13133.950348874072,0,1,,,0.0,0.0,0.0,0.0,1.0,1.0
2024-03-07,10215.463479780454,13202.150609036426,0,1,,,0.0,0.0,0.0,0.0,1.0,1.0
2024-03-08,10215.463479780454,13164.640400906543,0,1,,,0.0,0.0,0.0,0.0,1.0,1.0
2024-03-11,10215.463479780454,13178.280713101367,0,1,,,0.0,0.0,0.0,0.0,1.0,1.0
2024-03-12,10215.463479780454,13215.789620419482,0,1,,,0.0,0.0,0.0,0.0,1.0,1.0
2024-03-13,10215.463479780454,13195.330452939013,0,1,,,0.0,0.0,0.0,0.0,1.0,1.0
2024-03-14,10215.463479780454,13273.760296841601,0,1,,,0.0,0.0,0.0,0.0,1.0,1.0
2024-03-15,10215.463479780454,13328.32024480913,0,1,,,0.0,0.0,0.0,0.0,1.0,1.0
2024-03-18,10215.463479780454,13324.90951635454,0,1,,,0.0,0.0,0.0,0.0,1.0,1.0
2024-03-19,10215.463479780454,13198.739880581836,0,1,,,0.0,0.0,0.0,0.0,1.0,1.0
2024-03-20,10215.463479780454,13188.510296841601,0,1,,,0.0,0.0,0.0,0.0,1.0,1.0
2024-03-21,10215.463479780454,12932.760296841601,0,1,,,0.0,0.0,0.0,0.0,1.0,1.0
2024-03-22,10215.463479780454,13011.19014074419,0,1,,,0.0,0.0,0.0,0.0,1.0,1.0
2024-03-25,10215.463479780454,12878.200348874072,0,1,,,0.0,0.0,0.0,0.0,1.0,1.0
2024-03-26,10215.463479780454,12936.169724484424,0,1,,,0.0,0.0,0.0,0.0,1.0,1.0
2024-03-27,10215.463479780454,13137.359776516894,0,1,,,0.0,0.0,0.0,0.0,1.0,1.0
2024-03-28,10215.463479780454,13072.57024480913,0,1,,,0.0,0.0,0.0,0.0,1.0,1.0
2024-04-01,10215.463479780454,13127.13019277666,0,1,,,0.0,0.0,0.0,0.0,1.0,1.0
2024-04-02,10215.463479780454,13123.71946432207,0,1,,,0.0,0.0,0.0,0.0,1.0,1.0
2024-04-03,10215.463479780454,13045.289620419482,0,1,,,0.0,0.0,0.0,0.0,1.0,1.0
2024-04-04,10215.463479780454,13120.310036679248,0,1,,,0.0,0.0,0.0,0.0,1.0,1.0
2024-04-05,10215.463479780454,13222.609776516894,0,1,,,0.0,0.0,0.0,0.0,1.0,1.0
2024-04-08,10215.463479780454,13297.63019277666,0,1,,,0.0,0.0,0.0,0.0,1.0,1.0
2024-04-09,10215.463479780454,13379.46946432207,0,1,,,0.0,0.0,0.0,0.0,1.0,1.0
2024-04-10,10215.463479780454,13260.119984646777,0,1,,,0.0,0.0,0.0,0.0,1.0,1.0
2024-04-11,10215.463479780454,13365.830452939013,0,1,,,0.0,0.0,0.0,0.0,1.0,1.0
2024-04-12,10215.463479780454,13226.020504971484,0,1,,,0.0,0.0,0.0,0.0,1.0,1.0
2024-04-15,10215.463479780454,13239.65951635454,0,1,,,0.0,0.0,0.0,0.0,1.0,1.0
2024-04-16,10215.463479780454,13178.280713101367,0,1,,,0.0,0.0,0.0,0.0,1.0,1.0
2024-04-17,10215.463479780454,13226.020504971484,0,1,,,0.0,0.0,0.0,0.0,1.0,1.0
2024-04-18,10215.463479780454,13116.900609036426,0,1,,,0.0,0.0,0.0,0.0,1.0,1.0
2024-04-19,10215.463479780454,13222.609776516894,0,1,,,0.0,0.0,0.0,0.0,1.0,1.0
2024-04-22,10215.463479780454,13215.789620419482,0,1,,,0.0,0.0,0.0,0.0,1.0,1.0
2024-04-23,10215.463479780454,13065.750088711718,0,1,,,0.0,0.0,0.0,0.0,1.0,1.0
2024-04-24,10215.463479780454,12929.349568387011,0,1,,,0.0,0.0,0.0,0.0,1.0,1.0
2024-04-25,10215.463479780454,12891.840010663012,0,1,,,0.0,0.0,0.0,0.0,1.0,1.0
2024-04-26,10215.463479780454,12925.94014074419,0,1,,,0.0,0.0,0.0,0.0,1.0,1.0
2024-04-29,10215.463479780454,12994.140400906543,0,1,,,0.0,0.0,0.0,0.0,1.0,1.0
2024-04-30,10215.463479780454,12963.450348874072,0,1,,,0.0,0.0,0.0,0.0,1.0,1.0
2024-05-02,10215.463479780454,13038.46946432207,0,1,,,0.0,0.0,0.0,0.0,1.0,1.0
2024-05-03,10215.463479780454,13181.69014074419,0,1,,,0.0,0.0,0.0,0.0,1.0,1.0
2024-05-06,10215.463479780454,13324.90951635454,0,1,,,0.0,0.0,0.0,0.0,1.0,1.0
2024-05-07,10215.463479780454,13168.049828549365,0,1,,,0.0,0.0,0.0,0.0,1.0,1.0
2024-05-08,10215.463479780454,13106.669724484424,0,1,,,0.0,0.0,0.0,0.0,1.0,1.0
2024-05-09,10215.463479780454,13106.669724484424,0,1,,,0.0,0.0,0.0,0.0,1.0,1.0
2024-05-10,10215.463479780454,13280.580452939013,0,1,,,0.0,0.0,0.0,0.0,1.0,1.0
2024-05-13,10215.463479780454,13440.849568387011,0,1,,,0.0,0.0,0.0,0.0,1.0,1.0
2024-05-14,10311.201762478078,13577.250088711718,1,1,BUY,,33.61679847335815,0.0,0.0,0.0,1.0,1.0
2024-05-15,10383.922271053518,13659.090661068896,1,1,,,0.0,0.0,0.0,0.0,1.0,1.0
2024-05-16,10447.551993648733,13730.700348874072,1,1,,,0.0,0.0,0.0,0.0,1.0,1.0
2024-05-17,10362.711207668508,13635.21946432207,1,1,,,0.0,0.0,0.0,0.0,1.0,1.0
2024-05-20,10220.301993648733,13474.950348874072,1,1,,,0.0,0.0,0.0,0.0,1.0,1.0
2024-05-21,10289.99185494634,13553.38019277666,1,1,,,0.0,0.0,0.0,0.0,1.0,1.0
2024-05-22,10117.281947414602,13359.010296841601,1,1,,,0.0,0.0,0.0,0.0,1.0,1.0
2024-05-23,10074.862132351125,13311.270504971484,1,1,,,0.0,0.0,0.0,0.0,1.0,1.0
2024-05-24,9914.2713463709,13130.539620419482,1,1,,,0.0,0.0,0.0,0.0,1.0,1.0
2024-05-27,9965.781947414602,13188.510296841601,1,1,,,0.0,0.0,0.0,0.0,1.0,1.0
2024-05-28,9829.431716243947,13035.060036679248,1,1,,,0.0,0.0,0.0,0.0,1.0,1.0
2024-05-29,9887.00130013677,13099.849568387011,1,1,,,0.0,0.0,0.0,0.0,1.0,1.0
2024-05-31,9796.101531307424,12997.549828549365,1,1,,,0.0,0.0,0.0,0.0,1.0,1.0
2024-06-03,9759.74185494634,12956.63019277666,1,1,,,0.0,0.0,0.0,0.0,1.0,1.0
2024-06-04,9883.97180871221,13096.44014074419,1,1,,,0.0,0.0,0.0,0.0,1.0,1.0
2024-06-05,9941.541392605031,13161.229672451953,1,1,,,0.0,0.0,0.0,0.0,1.0,1.0
2024-06-06,9993.051993648733,13219.200348874072,1,1,,,0.0,0.0,0.0,0.0,1.0,1.0
2024-06-07,9914.2713463709,13130.539620419482,1,1,,,0.0,0.0,0.0,0.0,1.0,1.0
2024-06-10,9893.061438839162,13106.669724484424,1,1,,,0.0,0.0,0.0,0.0,1.0,1.0
2024-06-11,9941.541392605031,13161.229672451953,1,1,,,0.0,0.0,0.0,0.0,1.0,1.0
2024-06-12,9847.612132351125,13055.520504971484,1,1,,,0.0,0.0,0.0,0.0,1.0,1.0
2024-06-13,9859.731253902639,13069.15951635454,1,1,,,0.0,0.0,0.0,0.0,1.0,1.0
2024-06-14,9844.581485073293,13052.109776516894,1,1,,,0.0,0.0,0.0,0.0,1.0,1.0
2024-06-17,9823.371577541555,13028.239880581836,1,1,,,0.0,0.0,0.0,0.0,1.0,1.0
2024-06-18,9810.935956005262,13048.700348874072,0,1,SELL,,32.4137853050232,0.0,0.0,0.0,1.0,1.0
2024-06-19,9810.935956005262,13089.619984646777,0,1,,,0.0,0.0,0.0,0.0,1.0,1.0
2024-06-20,9810.935956005262,13137.359776516894,0,1,,,0.0,0.0,0.0,0.0,1.0,1.0
2024-06-21,9810.935956005262,13202.150609036426,0,1,,,0.0,0.0,0.0,0.0,1.0,1.0
2024-06-24,9810.935956005262,13451.080452939013,0,1,,,0.0,0.0,0.0,0.0,1.0,1.0
2024-06-25,9810.935956005262,13382.88019277666,0,1,,,0.0,0.0,0.0,0.0,1.0,1.0
2024-06-26,9810.935956005262,13219.200348874072,0,1,,,0.0,0.0,0.0,0.0,1.0,1.0
2024-06-27,9810.935956005262,13161.229672451953,0,1,,,0.0,0.0,0.0,0.0,1.0,1.0
2024-06-28,9810.935956005262,13212.38019277666,0,1,,,0.0,0.0,0.0,0.0,1.0,1.0
2024-07-01,9810.935956005262,13174.869984646777,0,1,,,0.0,0.0,0.0,0.0,1.0,1.0
2024-07-02,9810.935956005262,13178.280713101367,0,1,,,0.0,0.0,0.0,0.0,1.0,1.0
2024-07-03,9810.935956005262,13226.020504971484,0,1,,,0.0,0.0,0.0,0.0,1.0,1.0
2024-07-04,9810.935956005262,13290.810036679248,0,1,,,0.0,0.0,0.0,0.0,1.0,1.0
2024-07-05,9810.935956005262,13294.21946432207,0,1,,,0.0,0.0,0.0,0.0,1.0,1.0
2024-07-08,9810.935956005262,13301.039620419482,0,1,,,0.0,0.0,0.0,0.0,1.0,1.0
2024-07-09,9810.935956005262,13321.500088711718,0,1,,,0.0,0.0,0.0,0.0,1.0,1.0
2024-07-10,9810.935956005262,13345.369984646777,0,1,,,0.0,0.0,0.0,0.0,1.0,1.0
2024-07-11,9810.935956005262,13423.799828549365,0,1,,,0.0,0.0,0.0,0.0,1.0,1.0
2024-07-12,9810.935956005262,13563.609776516894,0,1,,,0.0,0.0,0.0,0.0,1.0,1.0
2024-07-15,9798.01146076161,13590.890400906543,1,1,BUY,,34.016999999999996,0.0,0.0,0.0,1.0,1.0
2024-07-16,9846.800935248915,13648.859776516894,1,1,,,0.0,0.0,0.0,0.0,1.0,1.0
2024-07-17,9921.42154834706,13737.520504971484,1,1,,,0.0,0.0,0.0,0.0,1.0,1.0
2024-07-18,9895.591504554335,13706.830452939013,1,1,,,0.0,0.0,0.0,0.0,1.0,1.0
2024-07-19,9815.230760078017,13611.349568387011,1,1,,,0.0,0.0,0.0,0.0,1.0,1.0
2024-07-22,9915.681416968886,13730.700348874072,1,1,,,0.0,0.0,0.0,0.0,1.0,1.0
2024-07-23,9832.451154212538,13631.810036679248,1,1,,,0.0,0.0,0.0,0.0,1.0,1.0
2024-07-24,9843.931416968886,13645.450348874072,1,1,,,0.0,0.0,0.0,0.0,1.0,1.0
2024-07-25,9815.230760078017,13611.349568387011,1,1,,,0.0,0.0,0.0,0.0,1.0,1.0
2024-07-26,9958.730760078017,13781.849568387011,1,1,,,0.0,0.0,0.0,0.0,1.0,1.0
2024-07-29,9981.691285590712,13809.13019277666,1,1,,,0.0,0.0,0.0,0.0,1.0,1.0
2024-07-30,10064.92154834706,13908.020504971484,1,1,,,0.0,0.0,0.0,0.0,1.0,1.0
2024-07-31,10122.320672492568,13976.21946432207,1,1,,,0.0,0.0,0.0,0.0,1.0,1.0
2024-08-01,10087.88097904164,13935.299828549365,1,1,,,0.0,0.0,0.0,0.0,1.0,1.0
2024-08-02,10044.831635932509,13884.150609036426,1,1,,,0.0,0.0,0.0,0.0,1.0,1.0
2024-08-05,9958.730760078017,13781.849568387011,1,1,,,0.0,0.0,0.0,0.0,1.0,1.0
2024-08-06,10044.831635932509,13884.150609036426,1,1,,,0.0,0.0,0.0,0.0,1.0,1.0
2024-08-07,10093.621110419814,13942.119984646777,1,1,,,0.0,0.0,0.0,0.0,1.0,1.0
2024-08-08,10400.711022834364,14306.989880581836,1,1,,,0.0,0.0,0.0,0.0,1.0,1.0
2024-08-09,10406.451154212538,14313.810036679248,1,1,,,0.0,0.0,0.0,0.0,1.0,1.0
2024-08-12,10547.081635932509,14480.900609036426,1,1,,,0.0,0.0,0.0,0.0,1.0,1.0
2024-08-13,10684.841504554335,14644.580452939013,1,1,,,0.0,0.0,0.0,0.0,1.0,1.0
2024-08-14,10776.681416968886,14753.700348874072,1,1,,,0.0,0.0,0.0,0.0,1.0,1.0
2024-08-15,10736.501592139784,14705.960557003955,1,1,,,0.0,0.0,0.0,0.0,1.0,1.0
2024-08-16,10730.76146076161,14699.140400906543,1,1,,,0.0,0.0,0.0,0.0,1.0,1.0
2024-08-19,10774.07186204164,14750.599797549366,1,1,,,0.0,0.0,399.190883,474.299969,1.0,1.0
2024-08-20,10774.07186204164,14750.599797549366,1,1,,,0.0,0.0,0.0,0.0,1.0,1.0
2024-08-21,10779.811993419813,14757.419953646779,1,1,,,0.0,0.0,0.0,0.0,1.0,1.0
2024-08-22,10745.372299968885,14716.500317874074,1,1,,,0.0,0.0,0.0,0.0,1.0,1.0
2024-08-23,11043.852562725233,15071.140630068898,1,1,,,0.0,0.0,0.0,0.0,1.0,1.0
2024-08-26,10943.401905834364,14951.789849581837,1,1,,,0.0,0.0,0.0,0.0,1.0,1.0
2024-08-27,10943.401905834364,14951.789849581837,1,1,,,0.0,0.0,0.0,0.0,1.0,1.0
2024-08-28,10877.392037212538,14873.36000567925,1,1,,,0.0,0.0,0.0,0.0,1.0,1.0
2024-08-29,10917.57186204164,14921.099797549366,1,1,,,0.0,0.0,0.0,0.0,1.0,1.0
2024-08-30,10969.231949627088,14982.479901614308,1,1,,,0.0,0.0,0.0,0.0,1.0,1.0
2024-09-02,10963.491818248915,14975.659745516896,1,1,,,0.0,0.0,0.0,0.0,1.0,1.0
2024-09-03,11012.282387554334,15033.630421939015,1,1,,,0.0,0.0,0.0,0.0,1.0,1.0
2024-09-04,11167.261555492567,15217.769433322072,1,1,,,0.0,0.0,0.0,0.0,1.0,1.0
2024-09-05,11032.372299968885,15057.500317874074,1,1,,,0.0,0.0,0.0,0.0,1.0,1.0
2024-09-06,10963.491818248915,14975.659745516896,1,1,,,0.0,0.0,0.0,0.0,1.0,1.0
2024-09-09,10943.401905834364,14951.789849581837,1,1,,,0.0,0.0,0.0,0.0,1.0,1.0
2024-09-10,10937.66177445619,14944.969693484425,1,1,,,0.0,0.0,0.0,0.0,1.0,1.0
2024-09-11,10874.522518932508,14869.950578036427,1,1,,,0.0,0.0,0.0,0.0,1.0,1.0
2024-09-12,10788.421643078016,14767.649537387013,1,1,,,0.0,0.0,0.0,0.0,1.0,1.0
2024-09-13,10814.25168687074,14798.339589419484,1,1,,,0.0,0.0,0.0,0.0,1.0,1.0
2024-09-16,10874.522518932508,14869.950578036427,1,1,,,0.0,0.0,0.0,0.0,1.0,1.0
2024-09-17,10748.241818248915,14719.909745516896,1,1,,,0.0,0.0,0.0,0.0,1.0,1.0
2024-09-18,10642.052124797987,14593.74010974419,1,1,,,0.0,0.0,0.0,0.0,1.0,1.0
2024-09-19,10576.04225617616,14515.310265841603,1,1,,,0.0,0.0,0.0,0.0,1.0,1.0
2024-09-20,10544.955817268548,14395.959485354542,0,1,SELL,,35.3223301525116,0.0,0.0,0.0,1.0,1.0
2024-09-23,10544.955817268548,14436.880421939015,0,1,,,0.0,0.0,0.0,0.0,1.0,1.0
2024-09-24,10544.955817268548,14535.769433322072,0,1,,,0.0,0.0,0.0,0.0,1.0,1.0
2024-09-25,10544.955817268548,14511.899537387013,0,1,,,0.0,0.0,0.0,0.0,1.0,1.0
2024-09-26,10544.955817268548,14552.820473971486,0,1,,,0.0,0.0,0.0,0.0,1.0,1.0
2024-09-27,10544.955817268548,14518.719693484425,0,1,,,0.0,0.0,0.0,0.0,1.0,1.0
2024-09-30,10544.955817268548,14563.05005771172,0,1,,,0.0,0.0,0.0,0.0,1.0,1.0
2024-10-01,10544.955817268548,14648.30005771172,0,1,,,0.0,0.0,0.0,0.0,1.0,1.0
2024-10-02,10544.955817268548,14549.409745516896,0,1,,,0.0,0.0,0.0,0.0,1.0,1.0
2024-10-03,10544.955817268548,14433.469693484425,0,1,,,0.0,0.0,0.0,0.0,1.0,1.0
2024-10-04,10544.955817268548,14419.830682101368,0,1,,,0.0,0.0,0.0,0.0,1.0,1.0
2024-10-07,10544.955817268548,14198.180161776661,0,1,,,0.0,0.0,0.0,0.0,1.0,1.0
2024-10-08,10544.955817268548,14153.849797549366,0,1,,,0.0,0.0,0.0,0.0,1.0,1.0
2024-10-09,10544.955817268548,14000.399537387013,0,1,,,0.0,0.0,0.0,0.0,1.0,1.0
2024-10-10,10544.955817268548,13996.99010974419,0,1,,,0.0,0.0,0.0,0.0,1.0,1.0
2024-10-11,10544.955817268548,14003.810265841603,0,1,,,0.0,0.0,0.0,0.0,1.0,1.0
2024-10-14,10544.955817268548,14041.320473971486,0,1,,,0.0,0.0,0.0,0.0,1.0,1.0
2024-10-15,10544.955817268548,14027.680161776661,0,1,,,0.0,0.0,0.0,0.0,1.0,1.0
2024-10-16,10544.955817268548,14065.190369906544,0,1,,,0.0,0.0,0.0,0.0,1.0,1.0
2024-10-17,10544.955817268548,14048.140630068898,0,1,,,0.0,0.0,0.0,0.0,1.0,1.0
2024-10-18,10544.955817268548,13990.169953646779,0,1,,,0.0,0.0,0.0,0.0,1.0,1.0
2024-10-21,10544.955817268548,14034.500317874074,0,1,,,0.0,0.0,0.0,0.0,1.0,1.0
2024-10-22,10544.955817268548,14167.49010974419,0,1,,,0.0,0.0,0.0,0.0,1.0,1.0
2024-10-23,10544.955817268548,14160.669953646779,0,1,,,0.0,0.0,0.0,0.0,1.0,1.0
2024-10-24,10544.955817268548,14174.310265841603,0,1,,,0.0,0.0,0.0,0.0,1.0,1.0
2024-10-25,10544.955817268548,14153.849797549366,0,1,,,0.0,0.0,0.0,0.0,1.0,1.0
2024-10-28,10544.955817268548,14181.130421939015,0,1,,,0.0,0.0,0.0,0.0,1.0,1.0
2024-10-29,10544.955817268548,14222.05005771172,0,1,,,0.0,0.0,0.0,0.0,1.0,1.0
2024-10-30,10544.955817268548,14222.05005771172,0,1,,,0.0,0.0,0.0,0.0,1.0,1.0
2024-10-31,10544.955817268548,14143.620213809132,0,1,,,0.0,0.0,0.0,0.0,1.0,1.0
2024-11-01,10544.955817268548,14147.029641451954,0,1,,,0.0,0.0,0.0,0.0,1.0,1.0
2024-11-04,10544.955817268548,14269.789849581837,0,1,,,0.0,0.0,0.0,0.0,1.0,1.0
2024-11-05,10544.955817268548,14430.060265841603,0,1,,,0.0,0.0,0.0,0.0,1.0,1.0
2024-11-06,10544.955817268548,14259.560265841603,0,1,,,0.0,0.0,0.0,0.0,1.0,1.0
2024-11-07,10544.955817268548,14324.349797549366,0,1,,,0.0,0.0,0.0,0.0,1.0,1.0
2024-11-08,10544.955817268548,14150.440369906544,0,1,,,0.0,0.0,0.0,0.0,1.0,1.0
2024-11-11,10544.955817268548,14119.750317874074,0,1,,,0.0,0.0,0.0,0.0,1.0,1.0
2024-11-12,10544.955817268548,13962.890630068898,0,1,,,0.0,0.0,0.0,0.0,1.0,1.0
2024-11-13,10544.955817268548,13894.690369906544,0,1,,,0.0,0.0,0.0,0.0,1.0,1.0
2024-11-14,10544.955817268548,13850.36000567925,0,1,,,0.0,0.0,0.0,0.0,1.0,1.0
2024-11-18,10544.955817268548,13891.279641451954,0,1,,,0.0,0.0,0.0,0.0,1.0,1.0
2024-11-19,10544.955817268548,14119.750317874074,0,1,,,0.0,0.0,0.0,0.0,1.0,1.0
2024-11-21,10544.955817268548,13874.229901614308,0,1,,,0.0,0.0,0.0,0.0,1.0,1.0
2024-11-22,10544.955817268548,14034.500317874074,0,1,,,0.0,0.0,0.0,0.0,1.0,1.0
2024-11-25,10544.955817268548,14075.419953646779,0,1,,,0.0,0.0,0.0,0.0,1.0,1.0
2024-11-26,10544.955817268548,14095.880421939015,0,1,,,0.0,0.0,0.0,0.0,1.0,1.0
2024-11-27,10544.955817268548,13918.560265841603,0,1,,,0.0,0.0,0.0,0.0,1.0,1.0
2024-11-28,10544.955817268548,13857.180161776661,0,1,,,0.0,0.0,0.0,0.0,1.0,1.0
2024-11-29,10544.955817268548,13891.279641451954,0,1,,,0.0,0.0,0.0,0.0,1.0,1.0
2024-12-02,10544.955817268548,13925.380421939015,0,1,,,0.0,0.0,0.0,0.0,1.0,1.0
2024-12-03,10544.955817268548,14406.190369906544,0,1,,,0.0,0.0,0.0,0.0,1.0,1.0
2024-12-04,10544.955817268548,14392.55005771172,0,1,,,0.0,0.0,0.0,0.0,1.0,1.0
2024-12-05,10544.955817268548,14528.950578036427,0,1,,,0.0,0.0,0.0,0.0,1.0,1.0
2024-12-06,10524.599805325854,14535.769433322072,1,1,BUY,,35.41770152664184,0.0,0.0,0.0,1.0,1.0
2024-12-09,10595.880303830492,14617.61000567925,1,1,,,0.0,0.0,0.0,0.0,1.0,1.0
2024-12-10,10717.650258511889,14757.419953646779,1,1,,,0.0,0.0,0.0,0.0,1.0,1.0
2024-12-11,10981.980077237475,15060.909745516896,1,1,,,0.0,0.0,0.0,0.0,1.0,1.0
2024-12-12,10863.180757016527,14924.510526003956,1,1,,,0.0,0.0,0.0,0.0,1.0,1.0
2024-12-13,10886.940167874682,14951.789849581837,1,1,,,0.0,0.0,0.0,0.0,1.0,1.0
2024-12-16,10756.260575742113,14801.750317874074,1,1,,,0.0,0.0,0.0,0.0,1.0,1.0
2024-12-17,11005.740621060717,15088.190369906544,1,1,,,0.0,0.0,0.0,0.0,1.0,1.0
2024-12-18,10955.250031918871,15030.219693484425,1,1,,,0.0,0.0,0.0,0.0,1.0,1.0
2024-12-19,11091.870892972338,15187.080682101368,1,1,,,0.0,0.0,0.0,0.0,1.0,1.0
2024-12-20,10854.269986600268,14914.279641451954,1,1,,,0.0,0.0,0.0,0.0,1.0,1.0
2024-12-23,10842.390847653734,14900.640630068898,1,1,,,0.0,0.0,0.0,0.0,1.0,1.0
2024-12-26,10836.450711697924,14893.820473971486,1,1,,,0.0,0.0,0.0,0.0,1.0,1.0
2024-12-27,10780.019986600268,14829.029641451954,1,1,,,0.0,0.0,0.0,0.0,1.0,1.0
2024-12-30,10750.320439786303,14794.930161776661,1,1,,,0.0,0.0,0.0,0.0,1.0,1.0
2025-01-02,10821.599805325854,14876.769433322072,1,1,,,0.0,0.0,0.0,0.0,1.0,1.0
2025-01-03,10693.890847653734,14730.140630068898,1,1,,,0.0,0.0,0.0,0.0,1.0,1.0
2025-01-06,10818.630303830492,14873.36000567925,1,1,,,0.0,0.0,0.0,0.0,1.0,1.0
2025-01-07,10854.269986600268,14914.279641451954,1,1,,,0.0,0.0,0.0,0.0,1.0,1.0
2025-01-08,10788.930757016527,14839.260526003956,1,1,,,0.0,0.0,0.0,0.0,1.0,1.0
2025-01-09,10780.019986600268,14829.029641451954,1,1,,,0.0,0.0,0.0,0.0,1.0,1.0
2025-01-10,10738.440167874682,14781.289849581837,1,1,,,0.0,0.0,0.0,0.0,1.0,1.0
2025-01-13,10750.320439786303,14794.930161776661,1,1,,,0.0,0.0,0.0,0.0,1.0,1.0
2025-01-14,10964.160802335131,15040.450578036427,1,1,,,0.0,0.0,0.0,0.0,1.0,1.0
2025-01-15,11097.80989596306,15193.899537387013,1,1,,,0.0,0.0,0.0,0.0,1.0,1.0
2025-01-16,11112.660802335131,15210.950578036427,1,1,,,0.0,0.0,0.0,0.0,1.0,1.0
2025-01-17,11240.370892972338,15357.580682101368,1,1,,,0.0,0.0,0.0,0.0,1.0,1.0
2025-01-20,11261.160802335131,15381.450578036427,1,1,,,0.0,0.0,0.0,0.0,1.0,1.0
2025-01-21,11270.070439786303,15391.680161776661,1,1,,,0.0,0.0,0.0,0.0,1.0,1.0
2025-01-22,11353.230077237475,15487.159745516896,1,1,,,0.0,0.0,0.0,0.0,1.0,1.0
2025-01-23,11296.800485104906,15422.370213809132,1,1,,,0.0,0.0,0.0,0.0,1.0,1.0
2025-01-24,11240.370892972338,15357.580682101368,1,1,,,0.0,0.0,0.0,0.0,1.0,1.0
2025-01-27,11460.150258511889,15609.919953646779,1,1,,,0.0,0.0,0.0,0.0,1.0,1.0
2025-01-28,11596.769986600268,15766.779641451954,1,1,,,0.0,0.0,0.0,0.0,1.0,1.0
2025-01-29,11516.579850644457,15674.709485354542,1,1,,,0.0,0.0,0.0,0.0,1.0,1.0
2025-01-30,11466.0903944677,15616.74010974419,1,1,,,0.0,0.0,0.0,0.0,1.0,1.0
2025-01-31,11451.240621060717,15599.690369906544,1,1,,,0.0,0.0,0.0,0.0,1.0,1.0
2025-02-03,11596.769986600268,15766.779641451954,1,1,,,0.0,0.0,0.0,0.0,1.0,1.0
2025-02-04,11584.890847653734,15753.140630068898,1,1,,,0.0,0.0,0.0,0.0,1.0,1.0
2025-02-05,11668.050485104906,15848.620213809132,1,1,,,0.0,0.0,0.0,0.0,1.0,1.0
2025-02-06,11804.670213193285,16005.479901614308,1,1,,,0.0,0.0,0.0,0.0,1.0,1.0
2025-02-07,11676.960122556078,15858.849797549366,1,1,,,0.0,0.0,0.0,0.0,1.0,1.0
2025-02-10,11780.910802335131,15978.200578036427,1,1,,,0.0,0.0,0.0,0.0,1.0,1.0
2025-02-11,11602.710122556078,15773.599797549366,1,1,,,0.0,0.0,0.0,0.0,1.0,1.0
2025-02-12,11623.500031918871,15797.469693484425,1,1,,,0.0,0.0,0.0,0.0,1.0,1.0
2025-02-13,11436.390847653734,15582.640630068898,1,1,,,0.0,0.0,0.0,0.0,1.0,1.0
2025-02-14,11552.22066637932,15715.630421939015,1,1,,,0.0,0.0,0.0,0.0,1.0,1.0
2025-02-17,11290.860349149096,15415.55005771172,1,1,,,0.0,0.0,0.0,0.0,1.0,1.0
2025-02-18,11795.760575742113,15995.250317874074,1,1,,,0.0,0.0,0.0,0.0,1.0,1.0
2025-02-19,11807.640847653734,16008.890630068898,1,1,,,0.0,0.0,0.0,0.0,1.0,1.0
2025-02-20,11843.28053042351,16049.810265841603,1,1,,,0.0,0.0,0.0,0.0,1.0,1.0
2025-02-21,11691.857803600267,15875.954542451953,1,1,,,0.0,0.0,689.0878170000001,791.1749010000001,1.0,1.0
2025-02-24,11828.478664653734,16032.815531068896,1,1,,,0.0,0.0,0.0,0.0,1.0,1.0
2025-02-25,11813.627758281664,16015.764490419482,1,1,,,0.0,0.0,0.0,0.0,1.0,1.0
2025-02-26,11840.357803600267,16046.454542451953,1,1,,,0.0,0.0,0.0,0.0,1.0,1.0
2025-02-27,12113.598392742113,16360.175218874072,1,1,,,0.0,0.0,0.0,0.0,1.0,1.0
2025-02-28,11932.428211467699,16152.16501074419,1,1,,,0.0,0.0,0.0,0.0,1.0,1.0
2025-03-05,12187.848392742113,16445.425218874072,1,1,,,0.0,0.0,0.0,0.0,1.0,1.0
2025-03-06,12291.797939556078,16564.774698549365,1,1,,,0.0,0.0,0.0,0.0,1.0,1.0
2025-03-07,12282.888302104906,16554.54511480913,1,1,,,0.0,0.0,0.0,0.0,1.0,1.0
2025-03-10,12259.127758281664,16527.264490419482,1,1,,,0.0,0.0,0.0,0.0,1.0,1.0
2025-03-11,12152.208709972338,16404.505583101367,1,1,,,0.0,0.0,0.0,0.0,1.0,1.0
2025-03-12,12149.238075511888,16401.094854646777,1,1,,,0.0,0.0,0.0,0.0,1.0,1.0
2025-03-13,12324.468120830492,16602.284906679248,1,1,,,0.0,0.0,0.0,0.0,1.0,1.0
2025-03-14,12517.518574016527,16823.935427003955,1,1,,,0.0,0.0,0.0,0.0,1.0,1.0
2025-03-17,12573.948166149095,16888.72495871172,1,1,,,0.0,0.0,0.0,0.0,1.0,1.0
2025-03-18,12686.80848337932,17018.305322939013,1,1,,,0.0,0.0,0.0,0.0,1.0,1.0
2025-03-19,12642.258030193285,16967.154802614306,1,1,,,0.0,0.0,0.0,0.0,1.0,1.0
2025-03-20,12725.417667644457,17062.63438635454,1,1,,,0.0,0.0,0.0,0.0,1.0,1.0
2025-03-21,12666.018574016527,16994.435427003955,1,1,,,0.0,0.0,0.0,0.0,1.0,1.0
2025-03-24,12579.888302104906,16895.54511480913,1,1,,,0.0,0.0,0.0,0.0,1.0,1.0
2025-03-25,12535.33784891887,16844.394594484424,1,1,,,0.0,0.0,0.0,0.0,1.0,1.0
2025-03-26,12612.55848337932,16933.055322939013,1,1,,,0.0,0.0,0.0,0.0,1.0,1.0
2025-03-27,12686.80848337932,17018.305322939013,1,1,,,0.0,0.0,0.0,0.0,1.0,1.0
2025-03-28,12651.167667644457,16977.38438635454,1,1,,,0.0,0.0,0.0,0.0,1.0,1.0
2025-03-31,12663.047939556078,16991.024698549365,1,1,,,0.0,0.0,0.0,0.0,1.0,1.0
2025-04-01,12930.348392742113,17297.925218874072,1,1,,,0.0,0.0,0.0,0.0,1.0,1.0
2025-04-02,12713.538528697924,17048.995374971484,1,1,,,0.0,0.0,0.0,0.0,1.0,1.0
2025-04-03,12927.377758281664,17294.514490419482,1,1,,,0.0,0.0,0.0,0.0,1.0,1.0
2025-04-04,12648.198166149095,16973.97495871172,1,1,,,0.0,0.0,0.0,0.0,1.0,1.0
2025-04-07,12594.738075511888,16912.594854646777,1,1,,,0.0,0.0,0.0,0.0,1.0,1.0
2025-04-08,12707.598392742113,17042.175218874072,1,1,,,0.0,0.0,0.0,0.0,1.0,1.0
2025-04-09,12808.578438060717,17158.115270906543,1,1,,,0.0,0.0,0.0,0.0,1.0,1.0
2025-04-10,12472.968120830492,16772.784906679248,1,1,,,0.0,0.0,0.0,0.0,1.0,1.0
2025-04-11,12568.008030193285,16881.904802614306,1,1,,,0.0,0.0,0.0,0.0,1.0,1.0
2025-04-14,12660.078438060717,16987.615270906543,1,1,,,0.0,0.0,0.0,0.0,1.0,1.0
2025-04-15,12755.11834742351,17096.7351668416,1,1,,,0.0,0.0,0.0,0.0,1.0,1.0
2025-04-16,12707.598392742113,17042.175218874072,1,1,,,0.0,0.0,0.0,0.0,1.0,1.0
2025-04-17,12793.728664653734,17141.065531068896,1,1,,,0.0,0.0,0.0,0.0,1.0,1.0
2025-04-22,12841.24861933513,17195.625479036426,1,1,,,0.0,0.0,0.0,0.0,1.0,1.0
2025-04-23,12924.408256786302,17291.10506277666,1,1,,,0.0,0.0,0.0,0.0,1.0,1.0
2025-04-24,13055.08784891887,17441.144594484424,1,1,,,0.0,0.0,0.0,0.0,1.0,1.0
2025-04-25,13182.797939556078,17587.774698549365,1,1,,,0.0,0.0,0.0,0.0,1.0,1.0
2025-04-28,13292.687622325853,17713.94433432207,1,1,,,0.0,0.0,0.0,0.0,1.0,1.0
2025-04-29,13117.458709972338,17512.755583101367,1,1,,,0.0,0.0,0.0,0.0,1.0,1.0
2025-04-30,13396.638302104906,17833.29511480913,1,1,,,0.0,0.0,0.0,0.0,1.0,1.0
2025-05-02,13212.49861933513,17621.875479036426,1,1,,,0.0,0.0,0.0,0.0,1.0,1.0
2025-05-05,13150.127758281664,17550.264490419482,1,1,,,0.0,0.0,0.0,0.0,1.0,1.0
2025-05-06,12223.488075511888,16486.344854646777,1,1,,,0.0,0.0,0.0,0.0,1.0,1.0
2025-05-07,12339.317894237474,16619.334646516894,1,1,,,0.0,0.0,0.0,0.0,1.0,1.0
2025-05-08,12036.377758281664,16271.514490419482,1,1,,,0.0,0.0,0.0,0.0,1.0,1.0
2025-05-09,12114.686014472334,16319.255583101367,0,1,SELL,,38.530724237442016,0.0,0.0,0.0,1.0,1.0
2025-05-12,12114.686014472334,16182.85506277666,0,1,,,0.0,0.0,0.0,0.0,1.0,1.0
2025-05-13,12114.686014472334,16309.024698549365,0,1,,,0.0,0.0,0.0,0.0,1.0,1.0
2025-05-14,12114.686014472334,16380.63438635454,0,1,,,0.0,0.0,0.0,0.0,1.0,1.0
2025-05-15,12114.686014472334,16380.63438635454,0,1,,,0.0,0.0,0.0,0.0,1.0,1.0
2025-05-16,12114.686014472334,16135.115270906543,0,1,,,0.0,0.0,0.0,0.0,1.0,1.0
2025-05-19,12114.686014472334,16285.154802614306,0,1,,,0.0,0.0,0.0,0.0,1.0,1.0
2025-05-20,12114.686014472334,16339.714750581836,0,1,,,0.0,0.0,0.0,0.0,1.0,1.0
2025-05-21,12114.686014472334,16244.235166841601,0,1,,,0.0,0.0,0.0,0.0,1.0,1.0
2025-05-22,12114.686014472334,16124.88438635454,0,1,,,0.0,0.0,0.0,0.0,1.0,1.0
2025-05-23,12114.686014472334,16240.824438387011,0,1,,,0.0,0.0,0.0,0.0,1.0,1.0
2025-05-26,12114.686014472334,16193.084646516894,0,1,,,0.0,0.0,0.0,0.0,1.0,1.0
2025-05-27,12114.686014472334,16319.255583101367,0,1,,,0.0,0.0,0.0,0.0,1.0,1.0
2025-05-28,12114.686014472334,16261.284906679248,0,1,,,0.0,0.0,0.0,0.0,1.0,1.0
2025-05-29,12114.686014472334,16182.85506277666,0,1,,,0.0,0.0,0.0,0.0,1.0,1.0
2025-05-30,12114.686014472334,16039.63438635454,0,1,,,0.0,0.0,0.0,0.0,1.0,1.0
2025-06-02,12114.686014472334,15862.315531068896,0,1,,,0.0,0.0,0.0,0.0,1.0,1.0
2025-06-03,12114.686014472334,15746.375479036426,0,1,,,0.0,0.0,0.0,0.0,1.0,1.0
2025-06-04,12114.686014472334,15524.724958711719,0,1,,,0.0,0.0,0.0,0.0,1.0,1.0
2025-06-05,12114.686014472334,15627.024698549365,0,1,,,0.0,0.0,0.0,0.0,1.0,1.0
2025-06-06,12114.686014472334,15674.764490419482,0,1,,,0.0,0.0,0.0,0.0,1.0,1.0
2025-06-09,12114.686014472334,15620.204542451953,0,1,,,0.0,0.0,0.0,0.0,1.0,1.0
2025-06-10,12114.686014472334,15354.224958711719,0,1,,,0.0,0.0,0.0,0.0,1.0,1.0
2025-06-11,12114.686014472334,15228.055322939013,0,1,,,0.0,0.0,0.0,0.0,1.0,1.0
2025-06-12,12114.686014472334,15282.615270906543,0,1,,,0.0,0.0,0.0,0.0,1.0,1.0
2025-06-13,12114.686014472334,15357.63438635454,0,1,,,0.0,0.0,0.0,0.0,1.0,1.0
2025-06-16,12114.686014472334,15463.344854646777,0,1,,,0.0,0.0,0.0,0.0,1.0,1.0
2025-06-17,12114.686014472334,15361.04511480913,0,1,,,0.0,0.0,0.0,0.0,1.0,1.0
2025-06-18,12114.686014472334,15364.454542451953,0,1,,,0.0,0.0,0.0,0.0,1.0,1.0
2025-06-20,12114.686014472334,15248.514490419482,0,1,,,0.0,0.0,0.0,0.0,1.0,1.0
2025-06-23,12114.686014472334,15357.63438635454,0,1,,,0.0,0.0,0.0,0.0,1.0,1.0
2025-06-24,12114.686014472334,15323.534906679248,0,1,,,0.0,0.0,0.0,0.0,1.0,1.0
2025-06-25,12114.686014472334,15200.774698549365,0,1,,,0.0,0.0,0.0,0.0,1.0,1.0
2025-06-26,12114.686014472334,15248.514490419482,0,1,,,0.0,0.0,0.0,0.0,1.0,1.0
2025-06-27,12114.686014472334,15262.154802614306,0,1,,,0.0,0.0,0.0,0.0,1.0,1.0
2025-06-30,12114.686014472334,15456.524698549365,0,1,,,0.0,0.0,0.0,0.0,1.0,1.0
2025-07-01,12114.686014472334,15671.35506277666,0,1,,,0.0,0.0,0.0,0.0,1.0,1.0
2025-07-02,12114.686014472334,15609.974958711719,0,1,,,0.0,0.0,0.0,0.0,1.0,1.0
2025-07-03,12114.686014472334,15691.815531068896,0,1,,,0.0,0.0,0.0,0.0,1.0,1.0
2025-07-04,12114.686014472334,15698.63438635454,0,1,,,0.0,0.0,0.0,0.0,1.0,1.0
2025-07-07,12114.686014472334,15555.41501074419,0,1,,,0.0,0.0,0.0,0.0,1.0,1.0
2025-07-08,12114.686014472334,15453.115270906543,0,1,,,0.0,0.0,0.0,0.0,1.0,1.0
2025-07-09,12114.686014472334,15258.745374971484,0,1,,,0.0,0.0,0.0,0.0,1.0,1.0
2025-07-10,12114.686014472334,15286.024698549365,0,1,,,0.0,0.0,0.0,0.0,1.0,1.0
2025-07-11,12114.686014472334,15258.745374971484,0,1,,,0.0,0.0,0.0,0.0,1.0,1.0
2025-07-14,12114.686014472334,15289.435427003955,0,1,,,0.0,0.0,0.0,0.0,1.0,1.0
2025-07-15,12114.686014472334,15163.264490419482,0,1,,,0.0,0.0,0.0,0.0,1.0,1.0
2025-07-16,12114.686014472334,15129.16501074419,0,1,,,0.0,0.0,0.0,0.0,1.0,1.0
2025-07-17,12114.686014472334,15125.755583101367,0,1,,,0.0,0.0,0.0,0.0,1.0,1.0
2025-07-18,12114.686014472334,14951.844854646777,0,1,,,0.0,0.0,0.0,0.0,1.0,1.0
2025-07-21,12114.686014472334,14999.584646516894,0,1,,,0.0,0.0,0.0,0.0,1.0,1.0
2025-07-22,12114.686014472334,14730.19433432207,0,1,,,0.0,0.0,0.0,0.0,1.0,1.0
2025-07-23,12114.686014472334,14767.704542451953,0,1,,,0.0,0.0,0.0,0.0,1.0,1.0
2025-07-24,12114.686014472334,14702.91501074419,0,1,,,0.0,0.0,0.0,0.0,1.0,1.0
2025-07-25,12114.686014472334,14682.454542451953,0,1,,,0.0,0.0,0.0,0.0,1.0,1.0
2025-07-28,12114.686014472334,14689.274698549365,0,1,,,0.0,0.0,0.0,0.0,1.0,1.0
2025-07-29,12114.686014472334,14743.834646516894,0,1,,,0.0,0.0,0.0,0.0,1.0,1.0
2025-07-30,12114.686014472334,14716.555322939013,0,1,,,0.0,0.0,0.0,0.0,1.0,1.0
2025-07-31,12114.686014472334,14740.425218874072,0,1,,,0.0,0.0,0.0,0.0,1.0,1.0
2025-08-01,12114.686014472334,14651.764490419482,0,1,,,0.0,0.0,0.0,0.0,1.0,1.0
2025-08-04,12114.686014472334,14689.274698549365,0,1,,,0.0,0.0,0.0,0.0,1.0,1.0
2025-08-05,12114.686014472334,14818.85506277666,0,1,,,0.0,0.0,0.0,0.0,1.0,1.0
2025-08-06,12114.686014472334,14972.305322939013,0,1,,,0.0,0.0,0.0,0.0,1.0,1.0
2025-08-07,12114.686014472334,14999.584646516894,0,1,,,0.0,0.0,0.0,0.0,1.0,1.0
2025-08-08,12114.686014472334,15002.995374971484,0,1,,,0.0,0.0,0.0,0.0,1.0,1.0
2025-08-11,12114.686014472334,15125.755583101367,0,1,,,0.0,0.0,0.0,0.0,1.0,1.0
2025-08-12,12114.686014472334,15262.154802614306,0,1,,,0.0,0.0,0.0,0.0,1.0,1.0
2025-08-13,12114.686014472334,15180.315531068896,0,1,,,0.0,0.0,0.0,0.0,1.0,1.0
2025-08-14,12114.686014472334,15292.844854646777,0,1,,,0.0,0.0,0.0,0.0,1.0,1.0
2025-08-15,12114.686014472334,15092.369665906543,0,1,,,0.0,0.0,0.0,662.2543949999999,1.0,1.0
2025-08-18,12114.686014472334,15116.239561841601,0,1,,,0.0,0.0,0.0,0.0,1.0,1.0
2025-08-19,12114.686014472334,14897.999769971484,0,1,,,0.0,0.0,0.0,0.0,1.0,1.0
2025-08-20,12114.686014472334,14795.699379727954,0,1,,,0.0,0.0,0.0,0.0,1.0,1.0
2025-08-21,12114.686014472334,14696.80906753313,0,1,,,0.0,0.0,0.0,0.0,1.0,1.0
2025-08-22,12114.686014472334,14754.779093549365,0,1,,,0.0,0.0,0.0,0.0,1.0,1.0
2025-08-25,12114.686014472334,14880.94872932207,0,1,,,0.0,0.0,0.0,0.0,1.0,1.0
2025-08-26,12114.686014472334,14911.63878135454,0,1,,,0.0,0.0,0.0,0.0,1.0,1.0
2025-08-27,12114.686014472334,14993.479353711718,0,1,,,0.0,0.0,0.0,0.0,1.0,1.0
2025-08-28,12114.686014472334,15007.119665906543,0,1,,,0.0,0.0,0.0,0.0,1.0,1.0
2025-08-29,12114.686014472334,15102.599249646777,0,1,,,0.0,0.0,0.0,0.0,1.0,1.0
2025-09-01,12114.686014472334,15058.268885419482,0,1,,,0.0,0.0,0.0,0.0,1.0,1.0
2025-09-02,12114.686014472334,14877.539301679248,0,1,,,0.0,0.0,0.0,0.0,1.0,1.0
2025-09-03,12114.686014472334,14840.029093549365,0,1,,,0.0,0.0,0.0,0.0,1.0,1.0
2025-09-04,12114.686014472334,14894.589041516894,0,1,,,0.0,0.0,0.0,0.0,1.0,1.0
2025-09-05,12114.686014472334,14904.819926068896,0,1,,,0.0,0.0,0.0,0.0,1.0,1.0
2025-09-08,12114.686014472334,14908.229353711718,0,1,,,0.0,0.0,0.0,0.0,1.0,1.0
2025-09-09,12114.686014472334,14983.249769971484,0,1,,,0.0,0.0,0.0,0.0,1.0,1.0
2025-09-10,12114.686014472334,14973.018885419482,0,1,,,0.0,0.0,0.0,0.0,1.0,1.0
2025-09-11,12114.686014472334,14955.969145581836,0,1,,,0.0,0.0,0.0,0.0,1.0,1.0
2025-09-12,12114.686014472334,14860.489561841601,0,1,,,0.0,0.0,0.0,0.0,1.0,1.0
2025-09-15,12114.686014472334,14874.129874036425,0,1,,,0.0,0.0,0.0,0.0,1.0,1.0
2025-09-16,12114.686014472334,14932.099249646777,0,1,,,0.0,0.0,0.0,0.0,1.0,1.0
2025-09-17,12114.686014472334,15003.708937451953,0,1,,,0.0,0.0,0.0,0.0,1.0,1.0
2025-09-18,12114.686014472334,15088.958937451953,0,1,,,0.0,0.0,0.0,0.0,1.0,1.0
2025-09-19,12114.686014472334,15136.69872932207,0,1,,,0.0,0.0,0.0,0.0,1.0,1.0
2025-09-22,12114.686014472334,15245.819926068896,0,1,,,0.0,0.0,0.0,0.0,1.0,1.0
2025-09-23,12114.686014472334,15266.279093549365,0,1,,,0.0,0.0,0.0,0.0,1.0,1.0
2025-09-24,12114.686014472334,15143.518885419482,0,1,,,0.0,0.0,0.0,0.0,1.0,1.0
2025-09-25,12114.686014472334,15020.759978101367,0,1,,,0.0,0.0,0.0,0.0,1.0,1.0
2025-09-26,12114.686014472334,14976.429613874072,0,1,,,0.0,0.0,0.0,0.0,1.0,1.0
2025-09-29,12114.686014472334,15048.039301679248,0,1,,,0.0,0.0,0.0,0.0,1.0,1.0
2025-09-30,12114.686014472334,15252.63878135454,0,1,,,0.0,0.0,0.0,0.0,1.0,1.0
2025-10-01,12114.686014472334,15303.789301679248,0,1,,,0.0,0.0,0.0,0.0,1.0,1.0
2025-10-02,12114.686014472334,15191.259978101367,0,1,,,0.0,0.0,0.0,0.0,1.0,1.0
2025-10-03,12114.686014472334,15102.599249646777,0,1,,,0.0,0.0,0.0,0.0,1.0,1.0
2025-10-06,12114.686014472334,15095.779093549365,0,1,,,0.0,0.0,0.0,0.0,1.0,1.0
2025-10-07,12114.686014472334,15184.439822003955,0,1,,,0.0,0.0,0.0,0.0,1.0,1.0
2025-10-08,12114.686014472334,15082.13878135454,0,1,,,0.0,0.0,0.0,0.0,1.0,1.0
2025-10-09,12114.686014472334,15082.13878135454,0,1,,,0.0,0.0,0.0,0.0,1.0,1.0
2025-10-10,12114.686014472334,15027.578833387011,0,1,,,0.0,0.0,0.0,0.0,1.0,1.0
2025-10-13,12114.686014472334,14976.429613874072,0,1,,,0.0,0.0,0.0,0.0,1.0,1.0
2025-10-14,12114.686014472334,14986.659197614306,0,1,,,0.0,0.0,0.0,0.0,1.0,1.0
2025-10-15,12114.686014472334,14826.38878135454,0,1,,,0.0,0.0,0.0,0.0,1.0,1.0
2025-10-16,12114.686014472334,14758.189171598071,0,1,,,0.0,0.0,0.0,0.0,1.0,1.0
2025-10-17,12114.686014472334,14809.339041516894,0,1,,,0.0,0.0,0.0,0.0,1.0,1.0
2025-10-20,12114.686014472334,14860.489561841601,0,1,,,0.0,0.0,0.0,0.0,1.0,1.0
2025-10-21,12114.686014472334,14792.289301679248,0,1,,,0.0,0.0,0.0,0.0,1.0,1.0
2025-10-22,12114.686014472334,14857.078833387011,0,1,,,0.0,0.0,0.0,0.0,1.0,1.0
2025-10-23,12114.686014472334,14826.38878135454,0,1,,,0.0,0.0,0.0,0.0,1.0,1.0
2025-10-24,12114.686014472334,14850.259978101367,0,1,,,0.0,0.0,0.0,0.0,1.0,1.0
2025-10-27,12114.686014472334,14880.94872932207,0,1,,,0.0,0.0,0.0,0.0,1.0,1.0
2025-10-28,12114.686014472334,15054.85945777666,0,1,,,0.0,0.0,0.0,0.0,1.0,1.0
2025-10-29,12114.686014472334,14966.19872932207,0,1,,,0.0,0.0,0.0,0.0,1.0,1.0
2025-10-30,12114.686014472334,15102.599249646777,0,1,,,0.0,0.0,0.0,0.0,1.0,1.0
2025-10-31,12114.686014472334,15112.828833387011,0,1,,,0.0,0.0,0.0,0.0,1.0,1.0
2025-11-03,12114.686014472334,15245.819926068896,0,1,,,0.0,0.0,0.0,0.0,1.0,1.0
2025-11-04,12114.686014472334,15382.219145581836,0,1,,,0.0,0.0,0.0,0.0,1.0,1.0
2025-11-05,12123.972257376554,15419.729353711718,1,1,BUY,,33.65681938934326,0.0,0.0,0.0,1.0,1.0
2025-11-06,12296.292093039396,15583.409197614306,1,1,,,0.0,0.0,0.0,0.0,1.0,1.0
2025-11-07,12149.102147818448,15443.599249646777,1,1,,,0.0,0.0,0.0,0.0,1.0,1.0
2025-11-10,12335.782312155607,15620.91940574419,1,1,,,0.0,0.0,0.0,0.0,1.0,1.0
2025-11-11,12055.762750388029,15354.939822003955,1,1,,,0.0,0.0,0.0,0.0,1.0,1.0
2025-11-12,11958.83258605087,15262.869665906543,1,1,,,0.0,0.0,0.0,0.0,1.0,1.0
2025-11-13,11973.192914725187,15276.509978101367,1,1,,,0.0,0.0,0.0,0.0,1.0,1.0
2025-11-14,12138.33258605087,15433.369665906543,1,1,,,0.0,0.0,0.0,0.0,1.0,1.0
2025-11-17,12159.871709586027,15453.828833387011,1,1,,,0.0,0.0,0.0,0.0,1.0,1.0
2025-11-18,12030.632859946134,15331.069926068896,1,1,,,0.0,0.0,0.0,0.0,1.0,1.0
2025-11-19,11969.602147818448,15273.099249646777,1,1,,,0.0,0.0,0.0,0.0,1.0,1.0
2025-11-21,11951.652421713712,15256.04950980913,1,1,,,0.0,0.0,0.0,0.0,1.0,1.0
2025-11-24,12055.762750388029,15354.939822003955,1,1,,,0.0,0.0,0.0,0.0,1.0,1.0
2025-11-25,12263.982038260343,15552.719145581836,1,1,,,0.0,0.0,0.0,0.0,1.0,1.0
2025-11-26,12429.121709586027,15709.578833387011,1,1,,,0.0,0.0,0.0,0.0,1.0,1.0
2025-11-27,12389.632859946134,15672.069926068896,1,1,,,0.0,0.0,0.0,0.0,1.0,1.0
2025-11-28,12253.212476492765,15542.489561841601,1,1,,,0.0,0.0,0.0,0.0,1.0,1.0
2025-12-01,12432.712476492765,15712.989561841601,1,1,,,0.0,0.0,0.0,0.0,1.0,1.0
2025-12-02,12500.92198348129,15777.779093549365,1,1,,,0.0,0.0,0.0,0.0,1.0,1.0
2025-12-03,12482.972257376554,15760.729353711718,1,1,,,0.0,0.0,0.0,0.0,1.0,1.0
2025-12-04,12680.42198348129,15948.279093549365,1,1,,,0.0,0.0,0.0,0.0,1.0,1.0
2025-12-05,12393.222257376554,15675.479353711718,1,1,,,0.0,0.0,0.0,0.0,1.0,1.0
2025-12-08,12723.501600027921,15989.19872932207,1,1,,,0.0,0.0,0.0,0.0,1.0,1.0
2025-12-09,12662.472257376554,15931.229353711718,1,1,,,0.0,0.0,0.0,0.0,1.0,1.0
2025-12-10,12727.09236693466,15992.60945777666,1,1,,,0.0,0.0,0.0,0.0,1.0,1.0
2025-12-11,12633.751600027921,15903.94872932207,1,1,,,0.0,0.0,0.0,0.0,1.0,1.0
2025-12-12,12791.712476492765,16053.989561841601,1,1,,,0.0,0.0,0.0,0.0,1.0,1.0
2025-12-15,12841.972257376554,16101.729353711718,1,1,,,0.0,0.0,0.0,0.0,1.0,1.0
2025-12-16,12658.882859946134,15927.819926068896,1,1,,,0.0,0.0,0.0,0.0,1.0,1.0
2025-12-17,12540.412202597501,15815.289301679248,1,1,,,0.0,0.0,0.0,0.0,1.0,1.0
2025-12-18,12676.83258605087,15944.869665906543,1,1,,,0.0,0.0,0.0,0.0,1.0,1.0
2025-12-19,12669.652421713712,15938.04950980913,1,1,,,0.0,0.0,0.0,0.0,1.0,1.0
2025-12-22,12597.852147818448,15869.849249646777,1,1,,,0.0,0.0,0.0,0.0,1.0,1.0
2025-12-23,12770.17198348129,16033.529093549365,1,1,,,0.0,0.0,0.0,0.0,1.0,1.0
2025-12-26,12849.152421713712,16108.54950980913,1,1,,,0.0,0.0,0.0,0.0,1.0,1.0
2025-12-29,12956.852147818448,16210.849249646777,1,1,,,0.0,0.0,0.0,0.0,1.0,1.0
2025-12-30,12985.572805167081,16238.129874036425,1,1,,,0.0,0.0,0.0,0.0,1.0,1.0
2026-01-02,12838.382859946134,16098.319926068896,1,1,,,0.0,0.0,0.0,0.0,1.0,1.0
2026-01-05,12881.462476492765,16139.239561841601,1,1,,,0.0,0.0,0.0,0.0,1.0,1.0
2026-01-06,12967.621709586027,16221.078833387011,1,1,,,0.0,0.0,0.0,0.0,1.0,1.0
2026-01-07,12716.322805167081,15982.379874036425,1,1,,,0.0,0.0,0.0,0.0,1.0,1.0
2026-01-08,12447.072805167081,15726.629874036425,1,1,,,0.0,0.0,0.0,0.0,1.0,1.0
2026-01-09,12569.132859946134,15842.569926068896,1,1,,,0.0,0.0,0.0,0.0,1.0,1.0
2026-01-12,12500.92198348129,15777.779093549365,1,1,,,0.0,0.0,0.0,0.0,1.0,1.0
2026-01-13,12461.43176436508,15740.268885419482,1,1,,,0.0,0.0,0.0,0.0,1.0,1.0
2026-01-14,12508.102147818448,15784.599249646777,1,1,,,0.0,0.0,0.0,0.0,1.0,1.0
2026-01-15,12540.412202597501,15815.289301679248,1,1,,,0.0,0.0,0.0,0.0,1.0,1.0
2026-01-16,12615.801873923185,15886.898989484424,1,1,,,0.0,0.0,0.0,0.0,1.0,1.0
2026-01-19,12673.241819144132,15941.458937451953,1,1,,,0.0,0.0,0.0,0.0,1.0,1.0
2026-01-20,12784.532312155607,16047.16940574419,1,1,,,0.0,0.0,0.0,0.0,1.0,1.0
2026-01-21,12999.93176436508,16251.768885419482,1,1,,,0.0,0.0,0.0,0.0,1.0,1.0
2026-01-22,13394.83258605087,16626.869665906543,1,1,,,0.0,0.0,0.0,0.0,1.0,1.0
2026-01-23,13287.132859946134,16524.569926068896,1,1,,,0.0,0.0,0.0,0.0,1.0,1.0
2026-01-26,13315.852147818448,16551.849249646777,1,1,,,0.0,0.0,0.0,0.0,1.0,1.0
2026-01-27,13279.952695608976,16517.749769971484,1,1,,,0.0,0.0,0.0,0.0,1.0,1.0
2026-01-28,13570.741819144132,16793.958937451953,1,1,,,0.0,0.0,0.0,0.0,1.0,1.0
2026-01-29,13484.58258605087,16712.119665906543,1,1,,,0.0,0.0,0.0,0.0,1.0,1.0
2026-01-30,13402.012750388029,16633.689822003955,1,1,,,0.0,0.0,0.0,0.0,1.0,1.0
2026-02-02,13685.621709586027,16903.07883338701,1,1,,,0.0,0.0,0.0,0.0,1.0,1.0
2026-02-03,13753.83258605087,16967.869665906543,1,1,,,0.0,0.0,0.0,0.0,1.0,1.0
2026-02-04,13344.572805167081,16579.129874036425,1,1,,,0.0,0.0,0.0,0.0,1.0,1.0
2026-02-05,13366.111928702237,16599.589041516894,1,1,,,0.0,0.0,0.0,0.0,1.0,1.0
2026-02-06,13373.292093039396,16606.409197614306,1,1,,,0.0,0.0,0.0,0.0,1.0,1.0
2026-02-09,13419.962476492765,16650.7395618416,1,1,,,0.0,0.0,0.0,0.0,1.0,1.0
2026-02-10,13728.702695608976,16943.999769971484,1,1,,,0.0,0.0,0.0,0.0,1.0,1.0
2026-02-11,13990.772531271818,17192.929613874072,1,1,,,0.0,0.0,0.0,0.0,1.0,1.0
2026-02-12,13563.561654806974,16787.13878135454,1,1,,,0.0,0.0,0.0,0.0,1.0,1.0
2026-02-13,13084.945860818449,16332.520436646777,1,1,,,0.0,0.0,935.843713,888.9211869999999,1.0,1.0
2026-02-18,13119.063176376554,16219.991113068896,0,1,SELL,,33.983000000000004,0.0,0.0,0.0,1.0,1.0
2026-02-19,13119.063176376554,16250.681165101367,0,1,,,0.0,0.0,0.0,0.0,1.0,1.0
2026-02-20,13119.063176376554,16410.950280549365,0,1,,,0.0,0.0,0.0,0.0,1.0,1.0
2026-02-23,13119.063176376554,16431.4107488416,0,1,,,0.0,0.0,0.0,0.0,1.0,1.0
2026-02-24,13119.063176376554,16680.34059274419,0,1,,,0.0,0.0,0.0,0.0,1.0,1.0
2026-02-25,13119.063176376554,16738.30996835454,0,1,,,0.0,0.0,0.0,0.0,1.0,1.0
2026-02-26,13119.063176376554,16772.4107488416,0,1,,,0.0,0.0,0.0,0.0,1.0,1.0
2026-02-27,13119.063176376554,16625.78064477666,0,1,,,0.0,0.0,0.0,0.0,1.0,1.0
2026-03-02,13119.063176376554,16649.65054071172,0,1,,,0.0,0.0,0.0,0.0,1.0,1.0
2026-03-03,13119.063176376554,16530.301061036425,0,1,,,0.0,0.0,0.0,0.0,1.0,1.0
2026-03-04,13119.063176376554,16520.070176484423,0,1,,,0.0,0.0,0.0,0.0,1.0,1.0
2026-03-05,13119.063176376554,16298.420956971484,0,1,,,0.0,0.0,0.0,0.0,1.0,1.0
2026-03-06,13119.063176376554,16462.100800874072,0,1,,,0.0,0.0,0.0,0.0,1.0,1.0
2026-03-09,13119.063176376554,16428.00002038701,0,1,,,0.0,0.0,0.0,0.0,1.0,1.0
2026-03-10,13119.063176376554,16567.80996835454,0,1,,,0.0,0.0,0.0,0.0,1.0,1.0
2026-03-11,13119.063176376554,16618.960488679248,0,1,,,0.0,0.0,0.0,0.0,1.0,1.0
2026-03-12,13119.063176376554,16520.070176484423,0,1,,,0.0,0.0,0.0,0.0,1.0,1.0
2026-03-13,13119.063176376554,16751.950280549365,0,1,,,0.0,0.0,0.0,0.0,1.0,1.0
2026-03-16,13119.063176376554,16693.980904939013,0,1,,,0.0,0.0,0.0,0.0,1.0,1.0
2026-03-17,13119.063176376554,16707.61991632207,0,1,,,0.0,0.0,0.0,0.0,1.0,1.0
2026-03-18,13119.063176376554,16571.22069680913,0,1,,,0.0,0.0,0.0,0.0,1.0,1.0
2026-03-19,13119.063176376554,16618.960488679248,0,1,,,0.0,0.0,0.0,0.0,1.0,1.0
2026-03-20,13119.063176376554,16424.59059274419,0,1,,,0.0,0.0,0.0,0.0,1.0,1.0
2026-03-23,13119.063176376554,16615.551061036425,0,1,,,0.0,0.0,0.0,0.0,1.0,1.0
2026-03-24,13119.063176376554,16550.760228516894,0,1,,,0.0,0.0,0.0,0.0,1.0,1.0
2026-03-25,13119.063176376554,16676.931165101367,0,1,,,0.0,0.0,0.0,0.0,1.0,1.0
2026-03-26,13119.063176376554,16612.140332581836,0,1,,,0.0,0.0,0.0,0.0,1.0,1.0
2026-03-27,13119.063176376554,16530.301061036425,0,1,,,0.0,0.0,0.0,0.0,1.0,1.0
2026-03-30,13119.063176376554,16496.200280549365,0,1,,,0.0,0.0,0.0,0.0,1.0,1.0
2026-03-31,13119.063176376554,16670.111009003955,0,1,,,0.0,0.0,0.0,0.0,1.0,1.0
2026-04-01,13119.063176376554,16769.00002038701,0,1,,,0.0,0.0,0.0,0.0,1.0,1.0
2026-04-02,13119.063176376554,16881.53064477666,0,1,,,0.0,0.0,0.0,0.0,1.0,1.0
2026-04-06,13119.063176376554,16884.940072419482,0,1,,,0.0,0.0,0.0,0.0,1.0,1.0
2026-04-07,13119.063176376554,16895.170956971484,0,1,,,0.0,0.0,0.0,0.0,1.0,1.0
2026-04-08,13119.063176376554,17024.75002038701,0,1,,,0.0,0.0,0.0,0.0,1.0,1.0
2026-04-09,13119.063176376554,17041.801061036425,0,1,,,0.0,0.0,0.0,0.0,1.0,1.0
2026-04-10,13119.063176376554,17215.710488679248,0,1,,,0.0,0.0,0.0,0.0,1.0,1.0
2026-04-13,13119.063176376554,17092.950280549365,0,1,,,0.0,0.0,0.0,0.0,1.0,1.0
2026-04-14,13119.063176376554,16983.830384614306,0,1,,,0.0,0.0,0.0,0.0,1.0,1.0
2026-04-15,13119.063176376554,16751.950280549365,0,1,,,0.0,0.0,0.0,0.0,1.0,1.0
2026-04-16,13119.063176376554,16738.30996835454,0,1,,,0.0,0.0,0.0,0.0,1.0,1.0
2026-04-17,13119.063176376554,16707.61991632207,0,1,,,0.0,0.0,0.0,0.0,1.0,1.0
2026-04-20,13119.063176376554,16830.380124451953,0,1,,,0.0,0.0,0.0,0.0,1.0,1.0
2026-04-22,13119.063176376554,16632.600800874072,0,1,,,0.0,0.0,0.0,0.0,1.0,1.0
2026-04-23,13119.063176376554,16485.97069680913,0,1,,,0.0,0.0,0.0,0.0,1.0,1.0
2026-04-24,13119.063176376554,16492.790852906543,0,1,,,0.0,0.0,0.0,0.0,1.0,1.0
2026-04-27,13119.063176376554,16376.850800874072,0,1,,,0.0,0.0,0.0,0.0,1.0,1.0
2026-04-28,13119.063176376554,16407.540852906543,0,1,,,0.0,0.0,0.0,0.0,1.0,1.0
2026-04-29,13119.063176376554,16308.650540711718,0,1,,,0.0,0.0,0.0,0.0,1.0,1.0
2026-04-30,13119.063176376554,16352.980904939013,0,1,,,0.0,0.0,0.0,0.0,1.0,1.0
2026-05-04,13119.063176376554,16342.750020387011,0,1,,,0.0,0.0,0.0,0.0,1.0,1.0
2026-05-05,13119.063176376554,16547.350800874072,0,1,,,0.0,0.0,0.0,0.0,1.0,1.0
2026-05-06,13119.063176376554,16676.931165101367,0,1,,,0.0,0.0,0.0,0.0,1.0,1.0
2026-05-07,13119.063176376554,16496.200280549365,0,1,,,0.0,0.0,0.0,0.0,1.0,1.0
2026-05-08,13119.063176376554,16571.22069680913,0,1,,,0.0,0.0,0.0,0.0,1.0,1.0
2026-05-11,13119.063176376554,16496.200280549365,0,1,,,0.0,0.0,0.0,0.0,1.0,1.0
2026-05-12,13119.063176376554,16465.510228516894,0,1,,,0.0,0.0,0.0,0.0,1.0,1.0
2026-05-13,13119.063176376554,16404.130124451953,0,1,,,0.0,0.0,0.0,0.0,1.0,1.0
2026-05-14,13119.063176376554,16557.580384614306,0,1,,,0.0,0.0,0.0,0.0,1.0,1.0
2026-05-15,13119.063176376554,16434.820176484423,0,1,,,0.0,0.0,0.0,0.0,1.0,1.0
2026-05-18,13119.063176376554,16434.820176484423,0,1,,,0.0,0.0,0.0,0.0,1.0,1.0
2026-05-19,13119.063176376554,16363.210488679248,0,1,,,0.0,0.0,0.0,0.0,1.0,1.0
2026-05-20,13119.063176376554,16636.010228516894,0,1,,,0.0,0.0,0.0,0.0,1.0,1.0
2026-05-21,13119.063176376554,16646.241113068896,0,1,,,0.0,0.0,0.0,0.0,1.0,1.0
2026-05-22,13119.063176376554,16554.170956971484,0,1,,,0.0,0.0,0.0,0.0,1.0,1.0
2026-05-25,13119.063176376554,16605.320176484423,0,1,,,0.0,0.0,0.0,0.0,1.0,1.0
2026-05-26,13119.063176376554,16639.420956971484,0,1,,,0.0,0.0,0.0,0.0,1.0,1.0
2026-05-27,13119.063176376554,16687.1607488416,0,1,,,0.0,0.0,0.0,0.0,1.0,1.0
2026-05-28,13119.063176376554,16591.681165101367,0,1,,,0.0,0.0,0.0,0.0,1.0,1.0
2026-05-29,13119.063176376554,16871.301061036425,0,1,,,0.0,0.0,0.0,0.0,1.0,1.0
2026-06-01,12949.8625988796,16745.130124451953,1,1,BUY,,35.41770152664184,0.0,0.0,0.0,1.0,1.0
2026-06-02,12986.763443453574,16779.230904939013,1,1,,,0.0,0.0,0.0,0.0,1.0,1.0
2026-06-03,12953.553387148642,16748.540852906543,1,1,,,0.0,0.0,0.0,0.0,1.0,1.0
2026-06-05,13082.702824099326,16867.890332581836,1,1,,,0.0,0.0,0.0,0.0,1.0,1.0
2026-06-08,13259.822655184531,17031.570176484423,1,1,,,0.0,0.0,0.0,0.0,1.0,1.0
2026-06-09,13400.043049319052,17161.15054071172,1,1,,,0.0,0.0,0.0,0.0,1.0,1.0
2026-06-10,13540.263443453574,17290.730904939013,1,1,,,0.0,0.0,0.0,0.0,1.0,1.0
2026-06-11,13971.992767794394,17689.700280549365,1,1,,,0.0,0.0,0.0,0.0,1.0,1.0
2026-06-12,13997.822655184531,17713.570176484423,1,1,,,0.0,0.0,0.0,0.0,1.0,1.0
2026-06-15,13964.6125988796,17682.880124451953,1,1,,,0.0,0.0,0.0,0.0,1.0,1.0
2026-06-16,14115.902542574668,17822.690072419482,1,1,,,0.0,0.0,0.0,0.0,1.0,1.0
2026-06-17,14525.492767794394,18201.200280549365,1,1,,,0.0,0.0,0.0,0.0,1.0,1.0
2026-06-18,14577.152542574668,18248.940072419482,1,1,,,0.0,0.0,0.0,0.0,1.0,1.0
2026-06-19,14377.893612368369,18064.801061036425,1,1,,,0.0,0.0,0.0,0.0,1.0,1.0
2026-06-22,14278.263443453574,17972.730904939013,1,1,,,0.0,0.0,0.0,0.0,1.0,1.0
2026-06-23,14145.423218233847,17849.97069680913,1,1,,,0.0,0.0,0.0,0.0,1.0,1.0
2026-06-24,14296.713161928916,17989.78064477666,1,1,,,0.0,0.0,0.0,0.0,1.0,1.0
2026-06-25,14366.822655184531,18054.570176484423,1,1,,,0.0,0.0,0.0,0.0,1.0,1.0
2026-06-26,14477.522373659873,18156.86991632207,1,1,,,0.0,0.0,0.0,0.0,1.0,1.0
2026-06-29,14536.563724978232,18211.431165101367,1,1,,,0.0,0.0,0.0,0.0,1.0,1.0
2026-06-30,14477.522373659873,18156.86991632207,1,1,,,0.0,0.0,0.0,0.0,1.0,1.0
2026-07-01,14093.763443453574,17802.230904939013,1,1,,,0.0,0.0,0.0,0.0,1.0,1.0
2026-07-02,14293.022373659873,17986.36991632207,1,1,,,0.0,0.0,0.0,0.0,1.0,1.0
2026-07-03,14285.643612368369,17979.551061036425,1,1,,,0.0,0.0,0.0,0.0,1.0,1.0
2026-07-06,14307.782711489463,18000.010228516894,1,1,,,0.0,0.0,0.0,0.0,1.0,1.0
2026-07-07,14248.742767794394,17945.450280549365,1,1,,,0.0,0.0,0.0,0.0,1.0,1.0
2026-07-08,14322.543049319052,18013.65054071172,1,1,,,0.0,0.0,0.0,0.0,1.0,1.0
2026-07-09,14518.1125988796,18194.380124451953,1,1,,,0.0,0.0,0.0,0.0,1.0,1.0
2026-07-10,14912.942486269736,18559.25002038701,1,1,,,0.0,0.0,0.0,0.0,1.0,1.0
2026-07-13,14887.1125988796,18535.380124451953,1,1,,,0.0,0.0,0.0,0.0,1.0,1.0
2026-07-14,14927.702824099326,18572.890332581836,1,1,,,0.0,0.0,0.0,0.0,1.0,1.0
2026-07-15,15045.782711489463,18682.010228516894,1,1,,,0.0,0.0,0.0,0.0,1.0,1.0
2026-07-16,15219.213161928916,18842.28064477666,1,1,,,0.0,0.0,0.0,0.0,1.0,1.0
2026-07-17,15197.072655184531,18821.820176484423,1,1,,,0.0,0.0,0.0,0.0,1.0,1.0
