date,strategy_equity,benchmark_equity,strategy_position,benchmark_position,strategy_trade,benchmark_trade,strategy_trade_price,benchmark_trade_price
2022-08-03,10000.0,9749.789340935502,0,1,,BUY,0.0,19.565101597630598
2022-08-04,10000.0,9630.329101525102,0,1,,,0.0,0.0
2022-08-05,10000.0,9722.484310112748,0,1,,,0.0,0.0
2022-08-08,10000.0,10067.21154018477,0,1,,,0.0,0.0
2022-08-09,10000.0,10169.607837639604,0,1,,,0.0,0.0
2022-08-10,10000.0,10053.560970268998,0,1,,,0.0,0.0
2022-08-11,10000.0,10340.264766655717,0,1,,,0.0,0.0
2022-08-12,10000.0,10439.244773827348,0,1,,,0.0,0.0
2022-08-15,10000.0,10497.270153008256,0,1,,,0.0,0.0
2022-08-16,10000.0,10408.528316460404,0,1,,,0.0,0.0
2022-08-17,10000.0,10316.371162377152,0,1,,,0.0,0.0
2022-08-18,10000.0,10134.723155937943,0,1,,,0.0,0.0
2022-08-19,10000.0,10074.640415154252,0,1,,,0.0,0.0
2022-08-22,10000.0,10095.846317253861,0,1,,,0.0,0.0
2022-08-23,10000.0,10074.640415154252,0,1,,,0.0,0.0
2022-08-24,10000.0,10074.640415154252,0,1,,,0.0,0.0
2022-08-25,10000.0,9950.93899532393,0,1,,,0.0,0.0
2022-08-26,10000.0,10039.296596489701,0,1,,,0.0,0.0
2022-08-29,10000.0,9975.679862938676,0,1,,,0.0,0.0
2022-08-30,10000.0,9979.21385570601,0,1,,,0.0,0.0
2022-08-31,10000.0,9996.885765038285,0,1,,,0.0,0.0
2022-09-01,10000.0,10177.135932884965,0,1,,,0.0,0.0
2022-09-02,10000.0,10060.504444084916,0,1,,,0.0,0.0
2022-09-05,10000.0,10138.259094200883,0,1,,,0.0,0.0
2022-09-06,10000.0,10180.670898400102,0,1,,,0.0,0.0
2022-09-08,10000.0,10102.915275536332,0,1,,,0.0,0.0
2022-09-09,10000.0,10095.846317253861,0,1,,,0.0,0.0
2022-09-12,10000.0,9968.610904656205,0,1,,,0.0,0.0
2022-09-13,10000.0,10028.6946181877,0,1,,,0.0,0.0
2022-09-14,10000.0,9940.337017021928,0,1,,,0.0,0.0
2022-09-15,10000.0,10014.556701622758,0,1,,,0.0,0.0
2022-09-16,10000.0,10417.469814263139,0,1,,,0.0,0.0
2022-09-19,10120.81727407742,10537.636268578324,1,1,BUY,,20.37060925409807,0.0
2022-09-20,10259.755958540922,10682.54164501265,1,1,,,0.0,0.0
2022-09-21,10212.314504607206,10633.062828026566,1,1,,,0.0,0.0
2022-09-22,10063.20852850247,10477.553527794633,1,1,,,0.0,0.0
2022-09-23,10053.042169554716,10466.950576744828,1,1,,,0.0,0.0
2022-09-26,9836.15829084683,10240.75266643599,1,1,,,0.0,0.0
2022-09-27,9717.553256972318,10117.054164849076,1,1,,,0.0,0.0
2022-09-28,9300.730674727445,9682.331226311479,1,1,,,0.0,0.0
2022-09-29,9118.660151628947,9388.982589684281,0,1,SELL,,18.646312118579512,0.0
2022-09-30,9118.660151628947,9392.51852794722,0,1,,,0.0,0.0
2022-10-03,9118.660151628947,9671.728275261674,0,1,,,0.0,0.0
2022-10-04,9118.660151628947,9495.01307293013,0,1,,,0.0,0.0
2022-10-05,9118.660151628947,9745.948932610307,0,1,,,0.0,0.0
2022-10-06,9118.660151628947,9820.16958995894,0,1,,,0.0,0.0
2022-10-07,9118.660151628947,9954.473960839066,0,1,,,0.0,0.0
2022-10-10,9118.660151628947,9979.21385570601,0,1,,,0.0,0.0
2022-10-11,9118.660151628947,9700.003135643754,0,1,,,0.0,0.0
2022-10-13,9118.660151628947,9958.008926354203,0,1,,,0.0,0.0
2022-10-14,9118.660151628947,9721.209037743363,0,1,,,0.0,0.0
2022-10-17,9118.660151628947,9912.06312938765,0,1,,,0.0,0.0
2022-10-18,9118.660151628947,10184.204891167436,0,1,,,0.0,0.0
2022-10-19,9136.851770062824,10247.822597466264,1,1,BUY,,20.010068681034863,0.0
2022-10-20,9272.140458722492,10399.798877678666,1,1,,,0.0,0.0
2022-10-21,9190.338056226154,10307.906310997758,1,1,,,0.0,0.0
2022-10-24,9042.464715619464,10141.793086968217,1,1,,,0.0,0.0
2022-10-25,8900.884133954425,9982.748821221146,1,1,,,0.0,0.0
2022-10-26,8837.960008283038,9912.06312938765,1,1,,,0.0,0.0
2022-10-27,9196.629083295245,10314.973323784623,1,1,,,0.0,0.0
2022-10-28,9240.677529950519,10364.455059014115,1,1,,,0.0,0.0
2022-10-31,9357.088807721515,10495.225437126908,1,1,,,0.0,0.0
2022-11-01,9360.233888287921,10498.75845714644,1,1,,,0.0,0.0
2022-11-03,9325.625878949542,10459.881618462357,1,1,,,0.0,0.0
2022-11-04,9385.404058118243,10527.03331752852,1,1,,,0.0,0.0
2022-11-07,9482.937925000568,10636.597793541703,1,1,,,0.0,0.0
2022-11-08,9567.886273999591,10732.024352989945,1,1,,,0.0,0.0
2022-11-09,9847.900624890704,11046.57791896895,1,1,,,0.0,0.0
2022-11-10,9438.889478345294,10587.116058312211,1,1,,,0.0,0.0
2022-11-11,9574.178167004962,10739.092338524613,1,1,,,0.0,0.0
2022-11-14,9766.098222394367,10954.685352288041,1,1,,,0.0,0.0
2022-11-16,9467.206460614581,10618.925884209428,1,1,,,0.0,0.0
2022-11-17,9435.744397778888,10583.58303829268,1,1,,,0.0,0.0
2022-11-18,9504.961282391925,10661.337688408646,1,1,,,0.0,0.0
2022-11-21,9599.347470899005,10767.36622615889,1,1,,,0.0,0.0
2022-11-22,9539.570157666583,10700.215499840531,1,1,,,0.0,0.0
2022-11-23,9769.244168897052,10958.219345055375,1,1,,,0.0,0.0
2022-11-24,9992.62628712215,11209.15520473555,1,1,,,0.0,0.0
2022-11-25,9674.857114453693,10852.189834557328,1,1,,,0.0,0.0
2022-11-28,9627.665319104572,10799.17702480391,1,1,,,0.0,0.0
2022-11-29,9734.635293622394,10919.34153362349,1,1,,,0.0,0.0
2022-11-30,9869.923982282062,11071.317813835893,1,1,,,0.0,0.0
2022-12-01,10099.59885944881,11329.322631798539,1,1,,,0.0,0.0
2022-12-02,10260.05685200252,11509.572799645219,1,1,,,0.0,0.0
2022-12-05,10030.381974835773,11251.567981682572,1,1,,,0.0,0.0
2022-12-06,10090.160154004474,11318.719680748734,1,1,,,0.0,0.0
2022-12-07,9976.896554608722,11191.48524089888,1,1,,,0.0,0.0
2022-12-08,9917.116643567462,11124.331596337113,1,1,,,0.0,0.0
2022-12-09,9995.773099561115,11212.690170250688,1,1,,,0.0,0.0
2022-12-12,9847.900624890704,11046.57791896895,1,1,,,0.0,0.0
2022-12-13,9772.390115399738,10961.753337822709,1,1,,,0.0,0.0
2022-12-14,9929.703027387042,11138.470485649857,1,1,,,0.0,0.0
2022-12-15,10149.938333173175,11385.871379814896,1,1,,,0.0,0.0
2022-12-16,10187.694020886798,11428.284156761918,1,1,,,0.0,0.0
2022-12-19,10193.98591389217,11435.352142296586,1,1,,,0.0,0.0
2022-12-20,10291.518048901935,11544.914672814164,1,1,,,0.0,0.0
2022-12-21,10543.21714939632,11827.660358391557,1,1,,,0.0,0.0
2022-12-22,10709.96876682796,12014.98045726851,1,1,,,0.0,0.0
2022-12-23,10584.118783612628,11873.607128105912,1,1,,,0.0,0.0
2022-12-26,10477.147077222247,11753.440673790727,1,1,,,0.0,0.0
2022-12-27,10461.415612836261,11735.768764458451,1,1,,,0.0,0.0
2022-12-28,10596.704301495929,11887.745044670854,1,1,,,0.0,0.0
2022-12-29,10621.873605389972,11916.01893230513,1,1,,,0.0,0.0
2023-01-02,10521.193792004962,11802.920463524613,1,1,,,0.0,0.0
2023-01-03,10193.98591389217,11435.352142296586,1,1,,,0.0,0.0
2023-01-04,10244.325387616534,11491.900890312943,1,1,,,0.0,0.0
2023-01-05,10266.349610944171,11516.64175792769,1,1,,,0.0,0.0
2023-01-06,10565.241372723956,11852.401226006303,1,1,,,0.0,0.0
2023-01-09,10615.580846448322,11908.94997402266,1,1,,,0.0,0.0
2023-01-10,10776.038839002033,12089.20014186934,1,1,,,0.0,0.0
2023-01-11,10838.963830609699,12159.886806450639,1,1,,,0.0,0.0
2023-01-12,10804.35582127132,12121.009967766557,1,1,,,0.0,0.0
2023-01-13,10776.038839002033,12089.20014186934,1,1,,,0.0,0.0
2023-01-16,10675.359891553302,11976.102645836625,1,1,,,0.0,0.0
2023-01-17,10832.672803540607,12152.819793663773,1,1,,,0.0,0.0
2023-01-18,10920.765367169757,12251.778400383744,1,1,,,0.0,0.0
2023-01-19,11040.322591443439,12386.082771263871,1,1,,,0.0,0.0
2023-01-20,11040.322591443439,12386.082771263871,1,1,,,0.0,0.0
2023-01-23,11128.417752881427,12485.04429622725,1,1,,,0.0,0.0
2023-01-24,11247.974977155109,12619.348667107377,1,1,,,0.0,0.0
2023-01-25,11713.617490430255,13142.42726131514,1,1,,,0.0,0.0
2023-01-26,11675.86353458919,13100.016429863725,1,1,,,0.0,0.0
2023-01-27,11741.933606763263,13174.236114464555,1,1,,,0.0,0.0
2023-01-30,11940.146421094318,13396.898086510453,1,1,,,0.0,0.0
2023-01-31,11902.390733380695,13354.485309563432,1,1,,,0.0,0.0
2023-02-01,11540.573979993243,12948.03917690352,1,1,,,0.0,0.0
2023-02-02,11499.673211713214,12902.093379936967,1,1,,,0.0,0.0
2023-02-03,11468.21114887752,12866.750534020219,1,1,,,0.0,0.0
2023-02-06,11524.842515607257,12930.367267571244,1,1,,,0.0,0.0
2023-02-07,11600.353025098224,13015.191848717484,1,1,,,0.0,0.0
2023-02-08,11672.716722150226,13096.481464348588,1,1,,,0.0,0.0
2023-02-09,11062.347680707355,12410.82461162642,1,1,,,0.0,0.0
2023-02-10,11326.631433148761,12707.707241020951,1,1,,,0.0,0.0
2023-02-13,11452.478818555255,12849.07765194014,1,1,,,0.0,0.0
2023-02-14,11521.694837232013,12926.831329308305,1,1,,,0.0,0.0
2023-02-15,11604.13976444759,13019.445674858842,1,1,,,0.0,0.0
2023-02-16,11746.75254215755,13179.649455986771,1,1,,,0.0,0.0
2023-02-17,11799.8197151617,13239.262359581742,1,1,,,0.0,0.0
2023-02-22,11743.436872144122,13175.924804650102,1,1,,,0.0,0.0
2023-02-23,11677.106153149982,13101.412322960648,1,1,,,0.0,0.0
2023-02-24,11325.544683118243,12706.48644252852,1,1,,,0.0,0.0
2023-02-27,11388.560598035236,12777.275245629105,1,1,,,0.0,0.0
2023-02-28,11362.02831043758,12747.470252953324,1,1,,,0.0,0.0
2023-03-01,11295.6949936346,12672.954853020463,1,1,,,0.0,0.0
2023-03-02,11481.425336499591,12881.594665489945,1,1,,,0.0,0.0
2023-03-03,11315.595075269122,12695.309570275102,1,1,,,0.0,0.0
2023-03-06,11584.241414685626,12997.092903099809,1,1,,,0.0,0.0
2023-03-07,11580.92314686336,12993.36533351973,1,1,,,0.0,0.0
2023-03-08,11577.607476849933,12989.64068218306,1,1,,,0.0,0.0
2023-03-09,11484.742738385577,12885.32126232222,1,1,,,0.0,0.0
2023-03-10,11295.6949936346,12672.954853020463,1,1,,,0.0,0.0
2023-03-13,11040.316529889484,12386.075962029252,1,1,,,0.0,0.0
2023-03-14,11043.63306583919,12389.801586113725,1,1,,,0.0,0.0
2023-03-15,10910.969030042072,12240.77370449141,1,1,,,0.0,0.0
2023-03-16,10960.717935223956,12296.659038506303,1,1,,,0.0,0.0
2023-03-17,10768.355386395831,12080.568950615678,1,1,,,0.0,0.0
2023-03-20,10741.48476422902,12017.23236843184,0,1,SELL,,23.671936242865204,0.0
2023-03-21,10741.48476422902,12039.588058434281,0,1,,,0.0,0.0
2023-03-22,10741.48476422902,12073.118675194535,0,1,,,0.0,0.0
2023-03-23,10741.48476422902,12166.260250054154,0,1,,,0.0,0.0
2023-03-24,10741.48476422902,12322.740352593217,0,1,,,0.0,0.0
2023-03-27,10741.48476422902,12218.419959984574,0,1,,,0.0,0.0
2023-03-28,10741.48476422902,12430.78539653853,0,1,,,0.0,0.0
2023-03-29,10741.48476422902,12229.59585949019,0,1,,,0.0,0.0
2023-03-30,10741.48476422902,12136.45428463057,0,1,,,0.0,0.0
2023-03-31,10741.48476422902,12114.100540123734,0,1,,,0.0,0.0
2023-04-03,10741.48476422902,12002.327926598344,0,1,,,0.0,0.0
2023-04-04,10741.48476422902,12348.820693932328,0,1,,,0.0,0.0
2023-04-05,10741.48476422902,12166.260250054154,0,1,,,0.0,0.0
2023-04-06,10741.48476422902,12687.858322106156,0,1,,,0.0,0.0
2023-04-10,10890.645964032348,12896.498134575639,1,1,BUY,,24.886979437790803,0.0
2023-04-11,11003.732073193725,13030.623519860063,1,1,,,0.0,0.0
2023-04-12,11129.381391888794,13179.649455986771,1,1,,,0.0,0.0
2023-04-13,10991.16722334021,13015.721023522172,1,1,,,0.0,0.0
2023-04-14,10981.743585950073,13004.544151268754,1,1,,,0.0,0.0
2023-04-17,10887.503111249145,12892.77056499556,1,1,,,0.0,0.0
2023-04-18,10890.645964032348,12896.498134575639,1,1,,,0.0,0.0
2023-04-19,10881.222326642212,12885.32126232222,1,1,,,0.0,0.0
2023-04-20,10937.764971142944,12952.383468590531,1,1,,,0.0,0.0
2023-04-24,10871.797869092163,12874.143417321,1,1,,,0.0,0.0
2023-04-25,10934.622938519653,12948.656871758256,1,1,,,0.0,0.0
2023-04-26,10940.907003766235,12956.110065422807,1,1,,,0.0,0.0
2023-04-27,10812.114012128051,12803.355586968217,1,1,,,0.0,0.0
2023-04-28,10796.407129651245,12784.72649379805,1,1,,,0.0,0.0
2023-05-02,10768.136217480835,12751.195877037797,1,1,,,0.0,0.0
2023-05-03,10548.246424084839,12490.396354637895,1,1,,,0.0,0.0
2023-05-04,10422.594644910034,12341.367500267777,1,1,,,0.0,0.0
2023-05-05,10535.681574231323,12475.493858300004,1,1,,,0.0,0.0
2023-05-08,10519.975511914428,12456.86573787764,1,1,,,0.0,0.0
2023-05-09,10607.93028104895,12561.184184990678,1,1,,,0.0,0.0
2023-05-10,10636.202013379272,12594.715774498734,1,1,,,0.0,0.0
2023-05-11,10689.604265576538,12658.053329430375,1,1,,,0.0,0.0
2023-05-12,10749.288122540649,12728.841159783158,1,1,,,0.0,0.0
2023-05-15,10114.750082379516,11976.249530754838,1,1,,,0.0,0.0
2023-05-16,10117.72099306393,11979.976127587113,0,1,SELL,,23.533206388128477,0.0
2023-05-17,10117.72099306393,11912.912948571,0,1,,,0.0,0.0
2023-05-18,10117.72099306393,11670.741546593461,0,1,,,0.0,0.0
2023-05-19,10117.72099306393,11514.261444054398,0,1,,,0.0,0.0
2023-05-22,10117.72099306393,11525.43928905562,0,1,,,0.0,0.0
2023-05-23,10117.72099306393,11465.829303704057,0,1,,,0.0,0.0
2023-05-24,10117.72099306393,11689.370639763627,0,1,,,0.0,0.0
2023-05-25,10117.72099306393,11853.301017723832,0,1,,,0.0,0.0
2023-05-26,10117.72099306393,11886.831634484086,0,1,,,0.0,0.0
2023-05-29,10117.72099306393,11957.620437584672,0,1,,,0.0,0.0
2023-05-30,10117.72099306393,11808.592555962357,0,1,,,0.0,0.0
2023-05-31,10117.72099306393,11525.43928905562,0,1,,,0.0,0.0
2023-06-01,10117.72099306393,11372.685783348832,0,1,,,0.0,0.0
2023-06-02,10117.72099306393,11547.793033562455,0,1,,,0.0,0.0
2023-06-05,10117.72099306393,11566.423099480424,0,1,,,0.0,0.0
2023-06-06,10117.72099306393,11547.793033562455,0,1,,,0.0,0.0
2023-06-07,10117.72099306393,11547.793033562455,0,1,,,0.0,0.0
2023-06-09,10117.72099306393,11577.598998986039,0,1,,,0.0,0.0
2023-06-12,10117.72099306393,11488.183048210893,0,1,,,0.0,0.0
2023-06-13,10117.72099306393,11406.216400109086,0,1,,,0.0,0.0
2023-06-14,10117.72099306393,11376.411407433305,0,1,,,0.0,0.0
2023-06-15,10117.72099306393,11395.04050060347,0,1,,,0.0,0.0
2023-06-16,10117.72099306393,11346.606414757523,0,1,,,0.0,0.0
2023-06-19,10117.72099306393,11272.09004207686,0,1,,,0.0,0.0
2023-06-20,10117.72099306393,11264.639766655717,0,1,,,0.0,0.0
2023-06-21,10117.72099306393,11305.622604332719,0,1,,,0.0,0.0
2023-06-22,10117.72099306393,11324.252670250688,0,1,,,0.0,0.0
2023-06-23,10117.72099306393,11398.76515194014,0,1,,,0.0,0.0
2023-06-26,10117.72099306393,11067.177799187455,0,1,,,0.0,0.0
2023-06-27,10117.72099306393,11219.932277642045,0,1,,,0.0,0.0
2023-06-28,10117.72099306393,11380.137031517777,0,1,,,0.0,0.0
2023-06-29,10117.72099306393,11469.553955040727,0,1,,,0.0,0.0
2023-06-30,10117.72099306393,11465.829303704057,0,1,,,0.0,0.0
2023-07-03,10117.72099306393,11741.530349694047,0,1,,,0.0,0.0
2023-07-04,10108.468624281913,11786.238811455521,1,1,BUY,,23.081669971561116,0.0
2023-07-05,10070.159609007866,11741.530349694047,1,1,,,0.0,0.0
2023-07-06,9990.349229979545,11648.387802086625,1,1,,,0.0,0.0
2023-07-07,10009.503320860893,11670.741546593461,1,1,,,0.0,0.0
2023-07-10,9964.810442137748,11618.582809410844,1,1,,,0.0,0.0
2023-07-11,9939.270820784599,11588.77684398726,1,1,,,0.0,0.0
2023-07-12,9824.343774962455,11454.651458702836,1,1,,,0.0,0.0
2023-07-13,9798.804153609306,11424.845493279252,1,1,,,0.0,0.0
2023-07-14,9728.571653533012,11342.88079067305,1,1,,,0.0,0.0
2023-07-17,9741.34104745391,11357.783287010941,1,1,,,0.0,0.0
2023-07-18,9629.605516600639,11227.382553063188,1,1,,,0.0,0.0
2023-07-19,9645.56975953582,11246.013591728959,1,1,,,0.0,0.0
2023-07-20,9814.765062499077,11443.472640953813,1,1,,,0.0,0.0
2023-07-21,9923.308244872123,11570.147750817094,1,1,,,0.0,0.0
2023-07-24,10057.389381575615,11726.626880608354,1,1,,,0.0,0.0
2023-07-25,9968.002790617973,11622.308433495316,1,1,,,0.0,0.0
2023-07-26,10035.042942214042,11700.547512017045,1,1,,,0.0,0.0
2023-07-27,9865.844305205375,11503.08457180098,1,1,,,0.0,0.0
2023-07-28,9993.54157845977,11652.113426171098,1,1,,,0.0,0.0
2023-07-31,9945.655517745048,11596.228092156205,1,1,,,0.0,0.0
2023-08-01,9990.349229979545,11648.387802086625,1,1,,,0.0,0.0
2023-08-02,9996.734760451347,11655.840023003373,1,1,,,0.0,0.0
2023-08-03,10009.503320860893,11670.741546593461,1,1,,,0.0,0.0
2023-08-04,10070.159609007866,11741.530349694047,1,1,,,0.0,0.0
2023-08-07,10309.589912581474,12020.95701976851,1,1,,,0.0,0.0
2023-08-08,10242.550594496757,11942.718913994584,1,1,,,0.0,0.0
2023-08-09,10277.666427779228,11983.700778923783,1,1,,,0.0,0.0
2023-08-10,10306.398397612602,12017.23236843184,1,1,,,0.0,0.0
2023-08-11,10376.630897688896,12099.197071038041,1,1,,,0.0,0.0
2023-08-14,10472.404686141044,12210.969684563432,1,1,,,0.0,0.0
2023-08-15,10402.170519042045,12129.003036461625,1,1,,,0.0,0.0
2023-08-16,10398.97817056182,12125.277412377152,1,1,,,0.0,0.0
2023-08-17,9971.676908659965,11626.59630580977,1,1,,,0.0,0.0
2023-08-18,10045.559354949028,11712.820671044145,1,1,,,0.0,0.0
2023-08-21,10048.91840569976,11716.740844689164,1,1,,,0.0,0.0
2023-08-22,10072.426759886772,11744.176223717484,1,1,,,0.0,0.0
2023-08-23,10136.234554457695,11818.642986260209,1,1,,,0.0,0.0
2023-08-24,10200.04318253997,11893.110721550736,1,1,,,0.0,0.0
2023-08-25,10200.04318253997,11893.110721550736,1,1,,,0.0,0.0
2023-08-28,10341.094141173393,12057.723968468461,1,1,,,0.0,0.0
2023-08-29,10438.484941649467,12171.383712731156,1,1,,,0.0,0.0
2023-08-30,10351.168792891533,12069.481571160111,1,1,,,0.0,0.0
2023-08-31,10213.47605149749,11908.787525139604,1,1,,,0.0,0.0
2023-09-01,10431.768507170707,12163.545310936723,1,1,,,0.0,0.0
2023-09-04,10549.309444594413,12300.721233330521,1,1,,,0.0,0.0
2023-09-05,10529.160141158134,12277.20602794722,1,1,,,0.0,0.0
2023-09-06,10451.91864411834,12187.061489067826,1,1,,,0.0,0.0
2023-09-08,10458.635078597099,12194.89989086226,1,1,,,0.0,0.0
2023-09-11,10687.001352477104,12461.414306603227,1,1,,,0.0,0.0
2023-09-12,10740.73532884124,12524.124439202104,1,1,,,0.0,0.0
2023-09-13,10730.659843611747,12512.36586376265,1,1,,,0.0,0.0
2023-09-14,10656.776563811332,12426.140525780473,1,1,,,0.0,0.0
2023-09-15,10636.6264268637,12402.62434764937,1,1,,,0.0,0.0
2023-09-18,10703.793272185356,12481.011283837113,1,1,,,0.0,0.0
2023-09-19,10650.060129332573,12418.302123986039,1,1,,,0.0,0.0
2023-09-20,10824.693260359794,12622.107379875932,1,1,,,0.0,0.0
2023-09-21,10676.927534270317,12449.657676659379,1,1,,,0.0,0.0
2023-09-22,10670.210266280204,12441.818302117143,1,1,,,0.0,0.0
2023-09-25,10767.601066756279,12555.478046379838,1,1,,,0.0,0.0
2023-09-26,10700.435054945976,12477.092082939896,1,1,,,0.0,0.0
2023-09-27,10579.535066771537,12335.995986901078,1,1,,,0.0,0.0
2023-09-28,10656.776563811332,12426.140525780473,1,1,,,0.0,0.0
2023-09-29,10492.21808450225,12234.09287258223,1,1,,,0.0,0.0
2023-10-02,10737.37711160186,12520.205238304887,1,1,,,0.0,0.0
2023-10-03,10764.243683028251,12551.559818230424,1,1,,,0.0,0.0
2023-10-04,10824.693260359794,12622.107379875932,1,1,,,0.0,0.0
2023-10-05,10737.37711160186,12520.205238304887,1,1,,,0.0,0.0
2023-10-06,10781.035602736503,12571.15679546431,1,1,,,0.0,0.0
2023-10-09,10717.226141142875,12496.68808742598,1,1,,,0.0,0.0
2023-10-10,10633.26820962432,12398.705146752152,1,1,,,0.0,0.0
2023-10-11,10673.568483519584,12445.73750301436,1,1,,,0.0,0.0
2023-10-13,10522.442873168022,12269.366653404984,1,1,,,0.0,0.0
2023-10-16,10653.418346571952,12422.221324883256,1,1,,,0.0,0.0
2023-10-17,10626.55177514556,12390.866744957719,1,1,,,0.0,0.0
2023-10-18,10720.584358382255,12500.607288323197,1,1,,,0.0,0.0
2023-10-19,10710.509706664116,12488.849685631547,1,1,,,0.0,0.0
2023-10-20,10569.460415053398,12324.238384209428,1,1,,,0.0,0.0
2023-10-23,10542.593843627006,12292.88380428389,1,1,,,0.0,0.0
2023-10-24,10556.026712584526,12308.560607872758,1,1,,,0.0,0.0
2023-10-25,10512.368221449882,12257.609050713334,1,1,,,0.0,0.0
2023-10-26,10532.517524886161,12281.124256096635,1,1,,,0.0,0.0
2023-10-27,10404.901935744316,12132.190731011186,1,1,,,0.0,0.0
2023-10-30,10270.569078612358,11975.4178313835,1,1,,,0.0,0.0
2023-10-31,10341.094141173393,12057.723968468461,1,1,,,0.0,0.0
2023-11-01,10492.21808450225,12234.09287258223,1,1,,,0.0,0.0
2023-11-03,10572.818632292778,12328.157585106645,1,1,,,0.0,0.0
2023-11-06,10680.285751509697,12453.576877556596,1,1,,,0.0,0.0
2023-11-07,10723.942575621635,12504.526489220414,1,1,,,0.0,0.0
2023-11-08,10723.942575621635,12504.526489220414,1,1,,,0.0,0.0
2023-11-09,10522.442873168022,12269.366653404984,1,1,,,0.0,0.0
2023-11-10,10522.442873168022,12269.366653404984,1,1,,,0.0,0.0
2023-11-13,10562.743147063286,12316.399009667191,1,1,,,0.0,0.0
2023-11-14,10639.98464410308,12406.543548546586,1,1,,,0.0,0.0
2023-11-16,10804.543123412162,12598.591201744828,1,1,,,0.0,0.0
2023-11-17,10683.643968749077,12457.496078453813,1,1,,,0.0,0.0
2023-11-20,10750.80998055938,12535.882041893754,1,1,,,0.0,0.0
2023-11-21,10727.301626372368,12508.446662865434,1,1,,,0.0,0.0
2023-11-22,10767.601066756279,12555.478046379838,1,1,,,0.0,0.0
2023-11-23,10791.110254454643,12582.914398155961,1,1,,,0.0,0.0
2023-11-24,10727.301626372368,12508.446662865434,1,1,,,0.0,0.0
2023-11-27,10660.134781050712,12430.05972667769,1,1,,,0.0,0.0
2023-11-28,10693.718620467216,12469.253681145463,1,1,,,0.0,0.0
2023-11-29,10572.818632292778,12328.157585106645,1,1,,,0.0,0.0
2023-11-30,10522.442873168022,12269.366653404984,1,1,,,0.0,0.0
2023-12-01,10388.110016036064,12112.593753777299,1,1,,,0.0,0.0
2023-12-04,10361.243444609672,12081.239173851762,1,1,,,0.0,0.0
2023-12-05,10320.943170714409,12034.206817589555,1,1,,,0.0,0.0
2023-12-06,10314.226736235649,12026.368415795121,1,1,,,0.0,0.0
2023-12-07,10455.27686135772,12190.980689965043,1,1,,,0.0,0.0
2023-12-08,10458.635078597099,12194.89989086226,1,1,,,0.0,0.0
2023-12-11,10482.144266295463,12222.336242638383,1,1,,,0.0,0.0
2023-12-12,10492.21808450225,12234.09287258223,1,1,,,0.0,0.0
2023-12-13,10438.484941649467,12171.383712731156,1,1,,,0.0,0.0
2023-12-14,10636.6264268637,12402.62434764937,1,1,,,0.0,0.0
2023-12-15,10781.035602736503,12571.15679546431,1,1,,,0.0,0.0
2023-12-18,10935.518596816093,12751.4458732231,1,1,,,0.0,0.0
2023-12-19,11217.618013548881,13080.66944881514,1,1,,,0.0,0.0
2023-12-20,11143.735567259819,12994.445083580766,1,1,,,0.0,0.0
2023-12-21,11143.735567259819,12994.445083580766,1,1,,,0.0,0.0
2023-12-22,11214.260629820854,13076.751220665727,1,1,,,0.0,0.0
2023-12-26,11298.218561339409,13174.734161339555,1,1,,,0.0,0.0
2023-12-27,11220.977064299614,13084.58962246016,1,1,,,0.0,0.0
2023-12-28,11311.65226380828,13190.411937676225,1,1,,,0.0,0.0
2024-01-02,11392.251978087455,13284.475677452836,1,1,,,0.0,0.0
2024-01-03,11341.877052474052,13225.685718498979,1,1,,,0.0,0.0
2024-01-04,11422.476766753227,13319.74945827559,1,1,,,0.0,0.0
2024-01-05,11321.72691552642,13202.169540367875,1,1,,,0.0,0.0
2024-01-08,11267.993772673637,13139.4603805168,1,1,,,0.0,0.0
2024-01-09,11227.693498778373,13092.428024254594,1,1,,,0.0,0.0
2024-01-10,11157.167602705986,13010.12091442183,1,1,,,0.0,0.0
2024-01-11,11187.39322488311,13045.395667992387,1,1,,,0.0,0.0
2024-01-12,11207.544195342094,13068.912818871293,1,1,,,0.0,0.0
2024-01-15,11325.084299254448,13206.087768517289,1,1,,,0.0,0.0
2024-01-16,11254.560070204765,13123.78260418013,1,1,,,0.0,0.0
2024-01-17,11398.968412566215,13292.31407924727,1,1,,,0.0,0.0
2024-01-18,11556.81129090789,13476.52430339888,1,1,,,0.0,0.0
2024-01-19,11613.9018174887,13543.15169139937,1,1,,,0.0,0.0
2024-01-22,11640.768388915092,13574.506271324906,1,1,,,0.0,0.0
2024-01-23,11600.468115019828,13527.4739150627,1,1,,,0.0,0.0
2024-01-24,11509.793749022514,13421.652572594438,1,1,,,0.0,0.0
2024-01-25,11341.877052474052,13225.685718498979,1,1,,,0.0,0.0
2024-01-26,11338.518835234672,13221.766517601762,1,1,,,0.0,0.0
2024-01-29,11459.41882340911,13362.86261364058,1,1,,,0.0,0.0
2024-01-30,11372.101841139824,13260.959499321732,1,1,,,0.0,0.0
2024-01-31,11513.151966261894,13425.571773491654,1,1,,,0.0,0.0
2024-02-01,11533.302103209526,13449.087951622758,1,1,,,0.0,0.0
2024-02-02,11459.41882340911,13362.86261364058,1,1,,,0.0,0.0
2024-02-05,11613.9018174887,13543.15169139937,1,1,,,0.0,0.0
2024-02-06,11932.944957900077,13915.490367852006,1,1,,,0.0,0.0
2024-02-07,12047.126844573051,14048.746116600785,1,1,,,0.0,0.0
2024-02-08,11597.109897780449,13523.554714165482,1,1,,,0.0,0.0
2024-02-09,11440.699825453788,13341.016643486771,1,1,,,0.0,0.0
2024-02-14,11489.501081633598,13397.970054589066,1,1,,,0.0,0.0
2024-02-15,11517.386203932792,13430.513332329545,1,1,,,0.0,0.0
2024-02-16,11395.384313750297,13288.131263695512,1,1,,,0.0,0.0
2024-02-19,11433.728336501152,13332.880580864701,1,1,,,0.0,0.0
2024-02-20,11552.244482207328,13471.1946181877,1,1,,,0.0,0.0
2024-02-21,11479.043848204643,13385.765960655961,1,1,,,0.0,0.0
2024-02-22,11639.389761137993,13572.897346459184,1,1,,,0.0,0.0
2024-02-23,11531.330015349418,13446.786430321488,1,1,,,0.0,0.0
2024-02-26,11538.301504302055,13454.922492943559,1,1,,,0.0,0.0
2024-02-27,11587.101926970512,13511.87493129805,1,1,,,0.0,0.0
2024-02-28,11705.618906188041,13650.189941368852,1,1,,,0.0,0.0
2024-02-29,11632.418272185356,13564.761283837113,1,1,,,0.0,0.0
2024-03-01,11486.014503645927,13393.901050530229,1,1,,,0.0,0.0
2024-03-04,11482.528759169609,13389.833019219193,1,1,,,0.0,0.0
2024-03-05,11465.100036788017,13369.492862664018,1,1,,,0.0,0.0
2024-03-06,11409.328958678276,13304.405334435258,1,1,,,0.0,0.0
2024-03-07,11479.043848204643,13385.765960655961,1,1,,,0.0,0.0
2024-03-08,11440.699825453788,13341.016643486771,1,1,,,0.0,0.0
2024-03-11,11454.642803359062,13357.288768730912,1,1,,,0.0,0.0
2024-03-12,11492.985992598564,13402.037113152299,1,1,,,0.0,0.0
2024-03-13,11472.072359252006,13377.62989803389,1,1,,,0.0,0.0
2024-03-14,11552.244482207328,13471.1946181877,1,1,,,0.0,0.0
2024-03-15,11608.017227339775,13536.284091912064,1,1,,,0.0,0.0
2024-03-18,11604.531482863456,13532.21606060103,1,1,,,0.0,0.0
2024-03-19,11475.558103728325,13381.697929344926,1,1,,,0.0,0.0
2024-03-20,11465.100036788017,13369.492862664018,1,1,,,0.0,0.0
2024-03-21,11203.668367552787,13064.389541588578,1,1,,,0.0,0.0
2024-03-22,11168.743636664853,13157.95523449019,0,1,SELL,,25.584087627722894,0.0
2024-03-25,11168.743636664853,12999.300067864213,0,1,,,0.0,0.0
2024-03-26,11168.743636664853,13068.45660015181,0,1,,,0.0,0.0
2024-03-27,11168.743636664853,13308.47239299849,0,1,,,0.0,0.0
2024-03-28,11168.743636664853,13231.179798088822,0,1,,,0.0,0.0
2024-04-01,11168.743636664853,13296.268299065385,0,1,,,0.0,0.0
2024-04-02,11168.743636664853,13292.20026775435,0,1,,,0.0,0.0
2024-04-03,11168.743636664853,13198.634574852738,0,1,,,0.0,0.0
2024-04-04,11168.743636664853,13288.131263695512,0,1,,,0.0,0.0
2024-04-05,11168.743636664853,13410.17317577437,0,1,,,0.0,0.0
2024-04-08,11168.743636664853,13499.670837364945,0,1,,,0.0,0.0
2024-04-09,11201.194456752895,13597.303588829789,1,1,BUY,,26.52744949317289,0.0
2024-04-10,11083.939436611294,13454.922492943559,1,1,,,0.0,0.0
2024-04-11,11187.794684108852,13581.032436333451,1,1,,,0.0,0.0
2024-04-12,11050.438803371548,13414.24315258101,1,1,,,0.0,0.0
2024-04-15,11063.837774929165,13430.513332329545,1,1,,,0.0,0.0
2024-04-16,11003.535193142056,13357.288768730912,1,1,,,0.0,0.0
2024-04-17,11050.438803371548,13414.24315258101,1,1,,,0.0,0.0
2024-04-18,10943.232611354946,13284.06420513228,1,1,,,0.0,0.0
2024-04-19,11047.087057766079,13410.17317577437,1,1,,,0.0,0.0
2024-04-22,11040.386770900845,13402.037113152299,1,1,,,0.0,0.0
2024-04-23,10892.979658779263,13223.04276271895,1,1,,,0.0,0.0
2024-04-24,10758.97312038815,13060.32053752974,1,1,,,0.0,0.0
2024-04-25,10722.120741542934,13015.57122036055,1,1,,,0.0,0.0
2024-04-26,10755.622976955532,13056.252506218705,1,1,,,0.0,0.0
2024-04-29,10822.625845607876,13137.613132439408,1,1,,,0.0,0.0
2024-04-30,10792.474554714321,13101.000850640092,1,1,,,0.0,0.0
2024-05-02,10866.178511318325,13190.498512230668,1,1,,,0.0,0.0
2024-05-03,11006.885336574673,13361.356800041947,1,1,,,0.0,0.0
2024-05-06,11147.592962917446,13532.21606060103,1,1,,,0.0,0.0
2024-05-07,10993.484762844204,13345.084674797807,1,1,,,0.0,0.0
2024-05-08,10933.181379970669,13271.859138451371,1,1,,,0.0,0.0
2024-05-09,10933.181379970669,13271.859138451371,1,1,,,0.0,0.0
2024-05-10,11104.041098293423,13479.331653557572,1,1,,,0.0,0.0
2024-05-13,11261.49783962643,13670.529125176225,1,1,,,0.0,0.0
2024-05-14,11395.504378017544,13833.251350365434,1,1,,,0.0,0.0
2024-05-15,11475.909422573208,13930.886047325883,1,1,,,0.0,0.0
2024-05-16,11546.263235744595,14016.315677605424,1,1,,,0.0,0.0
2024-05-17,11452.457617458462,13902.408855400834,1,1,,,0.0,0.0
2024-05-20,11295.000075039028,13711.210411034379,1,1,,,0.0,0.0
2024-05-21,11372.05417507565,13804.77610393599,1,1,,,0.0,0.0
2024-05-22,11181.095198330044,13572.897346459184,1,1,,,0.0,0.0
2024-05-23,11134.192389186977,13515.943935356889,1,1,,,0.0,0.0
2024-05-24,10956.633185085415,13300.33633037642,1,1,,,0.0,0.0
2024-05-27,11013.585623439907,13369.492862664018,1,1,,,0.0,0.0
2024-05-28,10862.828367885708,13186.430480919633,1,1,,,0.0,0.0
2024-05-29,10926.481093105434,13263.7230758293,1,1,,,0.0,0.0
2024-05-31,10825.976790126919,13141.682136498246,1,1,,,0.0,0.0
2024-06-03,10785.774267849087,13092.864788018021,1,1,,,0.0,0.0
2024-06-04,10923.131750759243,13259.656017266068,1,1,,,0.0,0.0
2024-06-05,10986.783674892544,13336.947639427934,1,1,,,0.0,0.0
2024-06-06,11043.737715419888,13406.106117211137,1,1,,,0.0,0.0
2024-06-07,10956.633185085415,13300.33633037642,1,1,,,0.0,0.0
2024-06-10,10933.181379970669,13271.859138451371,1,1,,,0.0,0.0
2024-06-11,10986.783674892544,13336.947639427934,1,1,,,0.0,0.0
2024-06-12,10882.929228481411,13210.838668785844,1,1,,,0.0,0.0
2024-06-13,10896.32980221188,13227.110794029984,1,1,,,0.0,0.0
2024-06-14,10879.578283962368,13206.769664727006,1,1,,,0.0,0.0
2024-06-17,10856.128081020473,13178.294418297563,1,1,,,0.0,0.0
2024-06-18,10876.228941616177,13202.702606163773,1,1,,,0.0,0.0
2024-06-19,10916.430662807583,13251.518981896195,1,1,,,0.0,0.0
2024-06-20,10963.33347195065,13308.47239299849,1,1,,,0.0,0.0
2024-06-21,11026.986998256802,13385.765960655961,1,1,,,0.0,0.0
2024-06-24,11271.549872097134,13682.735164604936,1,1,,,0.0,0.0
2024-06-25,11204.545401271938,13601.372592888627,1,1,,,0.0,0.0
2024-06-26,11043.737715419888,13406.106117211137,1,1,,,0.0,0.0
2024-06-27,10986.783674892544,13336.947639427934,1,1,,,0.0,0.0
2024-06-28,11037.037428554653,13397.970054589066,1,1,,,0.0,0.0
2024-07-01,11000.184248623013,13353.219764672074,1,1,,,0.0,0.0
2024-07-02,11003.535193142056,13357.288768730912,1,1,,,0.0,0.0
2024-07-03,11050.438803371548,13414.24315258101,1,1,,,0.0,0.0
2024-07-04,11114.090727504848,13491.534774742875,1,1,,,0.0,0.0
2024-07-05,11117.440870937466,13495.60280605391,1,1,,,0.0,0.0
2024-07-08,11124.140356716274,13503.737895928178,1,1,,,0.0,0.0
2024-07-09,11144.242018398403,13528.147056542191,1,1,,,0.0,0.0
2024-07-10,11167.69382351315,13556.62424846724,1,1,,,0.0,0.0
2024-07-11,11244.74792354977,13650.189941368852,1,1,,,0.0,0.0
2024-07-12,11382.1046053735,13816.980197869096,1,1,,,0.0,0.0
2024-07-15,11408.904951748013,13849.523475609574,1,1,,,0.0,0.0
2024-07-16,11465.85819118893,13918.680980644975,1,1,,,0.0,0.0
2024-07-17,11552.964323696255,14024.452712975297,1,1,,,0.0,0.0
2024-07-18,11522.812231716274,13987.839458428178,1,1,,,0.0,0.0
2024-07-19,11429.006613430141,13873.932636223588,1,1,,,0.0,0.0
2024-07-22,11546.263235744595,14016.315677605424,1,1,,,0.0,0.0
2024-07-23,11449.107474025845,13898.340824089799,1,1,,,0.0,0.0
2024-07-24,11462.508047756313,13914.61294933394,1,1,,,0.0,0.0
2024-07-25,11429.006613430141,13873.932636223588,1,1,,,0.0,0.0
2024-07-26,11596.514586147427,14077.335174523148,1,1,,,0.0,0.0
2024-07-29,11623.315733608364,14109.87942501143,1,1,,,0.0,0.0
2024-07-30,11720.471495327114,14227.854278527055,1,1,,,0.0,0.0
2024-07-31,11787.475165065884,14309.21587749556,1,1,,,0.0,0.0
2024-08-01,11747.271841701626,14260.397556267533,1,1,,,0.0,0.0
2024-08-02,11697.02129238522,14199.379032097611,1,1,,,0.0,0.0
2024-08-05,11596.514586147427,14077.335174523148,1,1,,,0.0,0.0
2024-08-06,11697.02129238522,14199.379032097611,1,1,,,0.0,0.0
2024-08-07,11753.97212856686,14268.533618889604,1,1,,,0.0,0.0
2024-08-08,12112.441481289028,14703.817832909379,1,1,,,0.0,0.0
2024-08-09,12119.140165981411,14711.951950035844,1,1,,,0.0,0.0
2024-08-12,12283.29959743893,14911.288402519975,1,1,,,0.0,0.0
2024-08-13,12444.108084377407,15106.555850945268,1,1,,,0.0,0.0
2024-08-14,12551.314276394009,15236.734798393998,1,1,,,0.0,0.0
2024-08-15,12504.410666164516,15179.7804145439,1,1,,,0.0,0.0
2024-08-16,12497.711981472134,15171.646297417436,1,1,,,0.0,0.0
2024-08-19,12550.226401027798,15235.413806877885,1,1,,,0.0,0.0
2024-08-20,12550.226401027798,15235.413806877885,1,1,,,0.0,0.0
2024-08-21,12557.18543880856,15243.864067040238,1,1,,,0.0,0.0
2024-08-22,12515.42720669186,15193.157642327104,1,1,,,0.0,0.0
2024-08-23,12877.34283321774,15632.626617394242,1,1,,,0.0,0.0
2024-08-26,12755.54324978268,15484.7271232231,1,1,,,0.0,0.0
2024-08-27,12755.54324978268,15484.7271232231,1,1,,,0.0,0.0
2024-08-28,12675.505102810024,15387.537944756303,1,1,,,0.0,0.0
2024-08-29,12724.224775966763,15446.6975478752,1,1,,,0.0,0.0
2024-08-30,12786.864927944302,15522.760589562211,1,1,,,0.0,0.0
2024-09-02,12779.905089077114,15514.309356652055,1,1,,,0.0,0.0
2024-09-03,12839.064520534634,15586.145809136186,1,1,,,0.0,0.0
2024-09-04,13026.982573207973,15814.332015953813,1,1,,,0.0,0.0
2024-09-05,12863.422354396938,15615.723178826127,1,1,,,0.0,0.0
2024-09-06,12779.905089077114,15514.309356652055,1,1,,,0.0,0.0
2024-09-09,12755.54324978268,15484.7271232231,1,1,,,0.0,0.0
2024-09-10,12748.583410915493,15476.275890312943,1,1,,,0.0,0.0
2024-09-11,12672.025984462856,15383.313301049027,1,1,,,0.0,0.0
2024-09-12,12567.62519710934,15256.540916405473,1,1,,,0.0,0.0
2024-09-13,12598.944472011684,15294.571464501176,1,1,,,0.0,0.0
2024-09-16,12672.025984462856,15383.313301049027,1,1,,,0.0,0.0
2024-09-17,12518.906325039028,15197.382286034379,1,1,,,0.0,0.0
2024-09-18,12390.147703823208,15041.032531700883,1,1,,,0.0,0.0
2024-09-19,12310.1079546777,14943.84140773848,1,1,,,0.0,0.0
2024-09-20,12188.308371242641,14795.941913567338,1,1,,,0.0,0.0
2024-09-23,12147.449541882139,14846.652229271684,0,1,SELL,,28.96869393530911,0.0
2024-09-24,12147.449541882139,14969.194133721146,0,1,,,0.0,0.0
2024-09-25,12147.449541882139,14939.6148185356,0,1,,,0.0,0.0
2024-09-26,12147.449541882139,14990.324161492143,0,1,,,0.0,0.0
2024-09-27,12147.449541882139,14948.066051445756,0,1,,,0.0,0.0
2024-09-30,12147.449541882139,15003.00198360518,0,1,,,0.0,0.0
2024-10-01,12147.449541882139,15108.643367729936,0,1,,,0.0,0.0
2024-10-02,12147.449541882139,14986.097572289262,0,1,,,0.0,0.0
2024-10-03,12147.449541882139,14842.425640068803,0,1,,,0.0,0.0
2024-10-04,12147.449541882139,14825.522201500688,0,1,,,0.0,0.0
2024-10-07,12147.449541882139,14550.854213677201,0,1,,,0.0,0.0
2024-10-08,12147.449541882139,14495.91925426558,0,1,,,0.0,0.0
2024-10-09,12147.449541882139,14305.763595543656,0,1,,,0.0,0.0
2024-10-10,12147.449541882139,14301.537979088578,0,1,,,0.0,0.0
2024-10-11,12147.449541882139,14309.990184746537,0,1,,,0.0,0.0
2024-10-14,12147.449541882139,14356.4729385002,0,1,,,0.0,0.0
2024-10-15,12147.449541882139,14339.569499932084,0,1,,,0.0,0.0
2024-10-16,12147.449541882139,14386.051280937943,0,1,,,0.0,0.0
2024-10-17,12147.449541882139,14364.924171410355,0,1,,,0.0,0.0
2024-10-18,12147.449541882139,14293.086746178422,0,1,,,0.0,0.0
2024-10-21,12147.449541882139,14348.02073284224,0,1,,,0.0,0.0
2024-10-22,12147.449541882139,14512.822692833695,0,1,,,0.0,0.0
2024-10-23,12147.449541882139,14504.370487175736,0,1,,,0.0,0.0
2024-10-24,12147.449541882139,14521.273925743852,0,1,,,0.0,0.0
2024-10-25,12147.449541882139,14495.91925426558,0,1,,,0.0,0.0
2024-10-28,12147.449541882139,14529.72613140181,0,1,,,0.0,0.0
2024-10-29,12147.449541882139,14580.432556114945,0,1,,,0.0,0.0
2024-10-30,12147.449541882139,14580.432556114945,0,1,,,0.0,0.0
2024-10-31,12147.449541882139,14483.243377648148,0,1,,,0.0,0.0
2024-11-01,12147.449541882139,14487.468021355424,0,1,,,0.0,0.0
2024-11-04,12147.449541882139,14639.592159233842,0,1,,,0.0,0.0
2024-11-05,12147.449541882139,14838.200996361527,0,1,,,0.0,0.0
2024-11-06,12147.449541882139,14626.915309868607,0,1,,,0.0,0.0
2024-11-07,12147.449541882139,14707.203968010697,0,1,,,0.0,0.0
2024-11-08,12147.449541882139,14491.693637810502,0,1,,,0.0,0.0
2024-11-11,12147.449541882139,14453.662116966996,0,1,,,0.0,0.0
2024-11-12,12147.449541882139,14259.281814537797,0,1,,,0.0,0.0
2024-11-13,12147.449541882139,14174.768512688432,0,1,,,0.0,0.0
2024-11-14,12147.449541882139,14119.83355327681,0,1,,,0.0,0.0
2024-11-18,12147.449541882139,14170.54192348555,0,1,,,0.0,0.0
2024-11-19,12147.449541882139,14453.662116966996,0,1,,,0.0,0.0
2024-11-21,12147.449541882139,14149.41384121016,0,1,,,0.0,0.0
2024-11-22,12147.449541882139,14348.02073284224,0,1,,,0.0,0.0
2024-11-25,12147.449541882139,14398.72910305098,0,1,,,0.0,0.0
2024-11-26,12147.449541882139,14424.083774529252,0,1,,,0.0,0.0
2024-11-27,12147.449541882139,14204.347827873979,0,1,,,0.0,0.0
2024-11-28,12147.449541882139,14128.28575893477,0,1,,,0.0,0.0
2024-11-29,12147.449541882139,14170.54192348555,0,1,,,0.0,0.0
2024-12-02,12147.449541882139,14212.800033531938,0,1,,,0.0,0.0
2024-12-03,12147.449541882139,14808.619735680375,0,1,,,0.0,0.0
2024-12-04,12110.277534924287,14791.717269860063,1,1,BUY,,29.03083569148807,0.0
2024-12-05,12248.482435665865,14960.744846306596,1,1,,,0.0,0.0
2024-12-06,12255.390970669527,14969.194133721146,1,1,,,0.0,0.0
2024-12-09,12338.314865551729,15070.61184688643,1,1,,,0.0,0.0
2024-12-10,12479.974033795137,15243.864067040238,1,1,,,0.0,0.0
2024-12-11,12787.47860570981,15619.948795281205,1,1,,,0.0,0.0
2024-12-12,12649.274500332613,15450.922191582475,1,1,,,0.0,0.0
2024-12-13,12676.9150032623,15484.7271232231,1,1,,,0.0,0.0
2024-12-16,12524.89064642026,15298.798053704057,1,1,,,0.0,0.0
2024-12-17,12815.120699368257,15653.755672417436,1,1,,,0.0,0.0
2024-12-18,12756.383039913911,15581.918247185502,1,1,,,0.0,0.0
2024-12-19,12915.319113217134,15776.300495110307,1,1,,,0.0,0.0
2024-12-20,12638.90931173398,15438.24534221724,1,1,,,0.0,0.0
2024-12-23,12625.089855633516,15421.34384914473,1,1,,,0.0,0.0
2024-12-26,12618.179729901094,15412.892616234574,1,1,,,0.0,0.0
2024-12-27,12552.531944714327,15332.603958092484,1,1,,,0.0,0.0
2024-12-30,12517.980520687837,15290.3468207939,1,1,,,0.0,0.0
2025-01-02,12600.90362020566,15391.76356121138,1,1,,,0.0,0.0
2025-01-03,12452.33432622983,15210.060108147416,1,1,,,0.0,0.0
2025-01-06,12597.448557339449,15387.537944756303,1,1,,,0.0,0.0
2025-01-07,12638.90931173398,15438.24534221724,1,1,,,0.0,0.0
2025-01-08,12562.89872404172,15345.282752953324,1,1,,,0.0,0.0
2025-01-09,12552.531944714327,15332.603958092484,1,1,,,0.0,0.0
2025-01-10,12504.160269222994,15273.444354973588,1,1,,,0.0,0.0
2025-01-13,12517.980520687837,15290.3468207939,1,1,,,0.0,0.0
2025-01-14,12766.749819241304,15594.597042046342,1,1,,,0.0,0.0
2025-01-15,12922.227648220796,15784.749782524857,1,1,,,0.0,0.0
2025-01-16,12939.50455328061,15805.879810295854,1,1,,,0.0,0.0
2025-01-17,13088.0754379852,15987.585208855424,1,1,,,0.0,0.0
2025-01-20,13112.260878048677,16017.16452404097,1,1,,,0.0,0.0
2025-01-21,13122.62606664731,16029.841373406205,1,1,,,0.0,0.0
2025-01-22,13219.370212994356,16148.1615523918,1,1,,,0.0,0.0
2025-01-23,13153.722427807588,16067.872894249711,1,1,,,0.0,0.0
2025-01-24,13088.0754379852,15987.585208855424,1,1,,,0.0,0.0
2025-01-27,13343.75247617795,16300.283744774613,1,1,,,0.0,0.0
2025-01-28,13502.688549481172,16494.665992699418,1,1,,,0.0,0.0
2025-01-29,13409.400261364717,16380.572402916703,1,1,,,0.0,0.0
2025-01-30,13350.663397274751,16308.735950432572,1,1,,,0.0,0.0
2025-01-31,13333.388082943697,16287.607868157182,1,1,,,0.0,0.0
2025-02-03,13502.688549481172,16494.665992699418,1,1,,,0.0,0.0
2025-02-04,13488.866707287569,16477.7615813835,1,1,,,0.0,0.0
2025-02-05,13585.611648998994,16596.0827331169,1,1,,,0.0,0.0
2025-02-06,13744.544540844698,16790.461090050492,1,1,,,0.0,0.0
2025-02-07,13595.975246868868,16608.757636986527,1,1,,,0.0,0.0
2025-02-10,13716.90562864377,16756.658103905473,1,1,,,0.0,0.0
2025-02-11,13509.598675213594,16503.117225609574,1,1,,,0.0,0.0
2025-02-12,13533.78411527707,16532.69654079512,1,1,,,0.0,0.0
2025-02-13,13316.111973248262,16266.478813133988,1,1,,,0.0,0.0
2025-02-14,13450.861015759248,16431.27980037764,1,1,,,0.0,0.0
2025-02-17,13146.812302075166,16059.421661339555,1,1,,,0.0,0.0
2025-02-18,13734.180942974825,16777.786186180863,1,1,,,0.0,0.0
2025-02-19,13748.001194439668,16794.688652001176,1,1,,,0.0,0.0
2025-02-20,13789.46353956296,16845.39799495772,1,1,,,0.0,0.0
2025-02-21,13602.419289074678,16616.63883968428,1,1,,,0.0,0.0
2025-02-24,13771.179703198213,16823.03646846846,1,1,,,0.0,0.0
2025-02-25,13752.835419140596,16800.601013146195,1,1,,,0.0,0.0
2025-02-26,13785.852585278291,16840.981719933305,1,1,,,0.0,0.0
2025-02-27,14123.370232067842,17253.773086510453,1,1,,,0.0,0.0
2025-02-28,13899.581737957735,16980.074928246293,1,1,,,0.0,0.0
2025-03-05,14215.086880169649,17365.944526634965,1,1,,,0.0,0.0
2025-03-06,14343.48891492917,17522.982986412797,1,1,,,0.0,0.0
2025-03-07,14332.484253369112,17509.524047814164,1,1,,,0.0,0.0
2025-03-10,14303.132126293916,17473.625762902055,1,1,,,0.0,0.0
2025-03-11,14171.061871014375,17312.10099025801,1,1,,,0.0,0.0
2025-03-12,14167.392059765596,17307.612731896195,1,1,,,0.0,0.0
2025-03-13,14383.844112835664,17572.338264427934,1,1,,,0.0,0.0
2025-03-14,14622.30867048337,17863.98556514815,1,1,,,0.0,0.0
2025-03-17,14692.01122327878,17949.233291588578,1,1,,,0.0,0.0
2025-03-18,14831.42110105588,18119.734580956254,1,1,,,0.0,0.0
2025-03-19,14776.391430340547,18052.432105980668,1,1,,,0.0,0.0
2025-03-20,14879.111149273653,18178.060539208207,1,1,,,0.0,0.0
2025-03-21,14805.740375958223,18088.326499901566,1,1,,,0.0,0.0
2025-03-24,14699.349255047578,17958.207862816605,1,1,,,0.0,0.0
2025-03-25,14644.319584332246,17890.90538784102,1,1,,,0.0,0.0
2025-03-26,14739.704452954073,18007.563140831742,1,1,,,0.0,0.0
2025-03-27,14831.42110105588,18119.734580956254,1,1,,,0.0,0.0
2025-03-28,14787.396091900606,18065.8910445793,1,1,,,0.0,0.0
2025-03-31,14802.070564709444,18083.83824153975,1,1,,,0.0,0.0
2025-04-01,15132.250179730196,18487.65503688887,1,1,,,0.0,0.0
2025-04-02,14864.438267193575,18160.115287743363,1,1,,,0.0,0.0
2025-04-03,15128.580368481416,18483.166778527055,1,1,,,0.0,0.0
2025-04-04,14783.727871380586,18061.40473171309,1,1,,,0.0,0.0
2025-04-07,14717.691948376436,17980.641372643266,1,1,,,0.0,0.0
2025-04-08,14857.101826153536,18151.14266201094,1,1,,,0.0,0.0
2025-04-09,14981.835640393037,18303.694808922563,1,1,,,0.0,0.0
2025-04-10,14567.277409039278,17796.681144676957,1,1,,,0.0,0.0
2025-04-11,14684.67319150998,17940.25872036055,1,1,,,0.0,0.0
2025-04-14,14798.403934918184,18079.353874169145,1,1,,,0.0,0.0
2025-04-15,14915.799717388887,18222.93144985274,1,1,,,0.0,0.0
2025-04-16,14857.101826153536,18151.14266201094,1,1,,,0.0,0.0
2025-04-17,14963.49294706418,18281.261299095902,1,1,,,0.0,0.0
2025-04-22,15022.190838299532,18353.0500869377,1,1,,,0.0,0.0
2025-04-23,15124.913738690157,18478.68241115645,1,1,,,0.0,0.0
2025-04-24,15286.332939587373,18676.10157772139,1,1,,,0.0,0.0
2025-04-25,15444.08551069333,18869.036376915727,1,1,,,0.0,0.0
2025-04-28,15579.82557722165,19035.049407921586,1,1,,,0.0,0.0
2025-04-29,15363.376705609102,18770.32776638106,1,1,,,0.0,0.0
2025-04-30,15708.229202709932,19192.089813195023,1,1,,,0.0,0.0
2025-05-02,15480.774078808565,18913.907287560258,1,1,,,0.0,0.0
2025-05-05,15403.730312786836,18819.68109890059,1,1,,,0.0,0.0
2025-05-06,14259.110298596162,17419.786117516313,1,1,,,0.0,0.0
2025-05-07,14293.049093747168,17594.771774254594,0,1,SELL,,34.30282568057519,0.0
2025-05-08,14293.049093747168,17137.113388024125,0,1,,,0.0,0.0
2025-05-09,14293.049093747168,17199.931495629105,0,1,,,0.0,0.0
2025-05-12,14293.049093747168,17020.457580529008,0,1,,,0.0,0.0
2025-05-13,14293.049093747168,17186.470611534867,0,1,,,0.0,0.0
2025-05-14,14293.049093747168,17280.692909203324,0,1,,,0.0,0.0
2025-05-15,14293.049093747168,17280.692909203324,0,1,,,0.0,0.0
2025-05-16,14293.049093747168,16957.639472924027,0,1,,,0.0,0.0
2025-05-19,14293.049093747168,17155.06253048018,0,1,,,0.0,0.0
2025-05-20,14293.049093747168,17226.851318321977,0,1,,,0.0,0.0
2025-05-21,14293.049093747168,17101.218994103227,0,1,,,0.0,0.0
2025-05-22,14293.049093747168,16944.17858882979,0,1,,,0.0,0.0
2025-05-23,14293.049093747168,17096.73073574141,0,1,,,0.0,0.0
2025-05-26,14293.049093747168,17033.91651912764,0,1,,,0.0,0.0
2025-05-27,14293.049093747168,17199.931495629105,0,1,,,0.0,0.0
2025-05-28,14293.049093747168,17123.652503929887,0,1,,,0.0,0.0
2025-05-29,14293.049093747168,17020.457580529008,0,1,,,0.0,0.0
2025-05-30,14293.049093747168,16832.009094200883,0,1,,,0.0,0.0
2025-06-02,14293.049093747168,16598.693588219438,0,1,,,0.0,0.0
2025-06-03,14293.049093747168,16446.13949581221,0,1,,,0.0,0.0
2025-06-04,14293.049093747168,16154.495113335404,0,1,,,0.0,0.0
2025-06-05,14293.049093747168,16289.100063286576,0,1,,,0.0,0.0
2025-06-06,14293.049093747168,16351.915252648148,0,1,,,0.0,0.0
2025-06-09,14293.049093747168,16280.126464806352,0,1,,,0.0,0.0
2025-06-10,14293.049093747168,15930.153205834184,0,1,,,0.0,0.0
2025-06-11,14293.049093747168,15764.140174828324,0,1,,,0.0,0.0
2025-06-12,14293.049093747168,15835.928962670121,0,1,,,0.0,0.0
2025-06-13,14293.049093747168,15934.638545952592,0,1,,,0.0,0.0
2025-06-16,14293.049093747168,16073.730781517777,0,1,,,0.0,0.0
2025-06-17,14293.049093747168,15939.126804314408,0,1,,,0.0,0.0
2025-06-18,14293.049093747168,15943.61311718062,0,1,,,0.0,0.0
2025-06-20,14293.049093747168,15791.059997521195,0,1,,,0.0,0.0
2025-06-23,14293.049093747168,15934.638545952592,0,1,,,0.0,0.0
2025-06-24,14293.049093747168,15889.769580803666,0,1,,,0.0,0.0
2025-06-25,14293.049093747168,15728.242862664018,0,1,,,0.0,0.0
2025-06-26,14293.049093747168,15791.059997521195,0,1,,,0.0,0.0
2025-06-27,14293.049093747168,15809.007194481645,0,1,,,0.0,0.0
2025-06-30,14293.049093747168,16064.75621028975,0,1,,,0.0,0.0
2025-07-01,14293.049093747168,16347.428939781938,0,1,,,0.0,0.0
2025-07-02,14082.84619923692,16266.66460796431,1,1,BUY,,32.30385231331935,0.0
2025-07-03,14175.963003359844,16374.350707970414,1,1,,,0.0,0.0
2025-07-04,14183.72168561082,16383.323333702836,1,1,,,0.0,0.0
2025-07-07,14020.77001210313,16194.875820122514,1,1,,,0.0,0.0
2025-07-08,13904.376320086529,16060.270870171342,1,1,,,0.0,0.0
2025-07-09,13683.227800570538,15804.520881615434,1,1,,,0.0,0.0
2025-07-10,13714.265894137432,15840.415275536332,1,1,,,0.0,0.0
2025-07-11,13683.227800570538,15804.520881615434,1,1,,,0.0,0.0
2025-07-14,13718.146076403667,15844.902561150346,1,1,,,0.0,0.0
2025-07-15,13574.591949664165,15678.88758464888,1,1,,,0.0,0.0
2025-07-16,13535.795173846294,15634.02056499556,1,1,,,0.0,0.0
2025-07-17,13531.915832720806,15629.53425212935,1,1,,,0.0,0.0
2025-07-18,13334.045042239239,15400.704086266313,1,1,,,0.0,0.0
2025-07-21,13388.362547122051,15463.520248375688,1,1,,,0.0,0.0
2025-07-22,13081.857588015606,15109.058731041703,1,1,,,0.0,0.0
2025-07-23,13068.563845436682,15158.41400905684,0,1,SELL,,29.65115178112164,0.0
2025-07-24,13068.563845436682,15073.164337120805,0,1,,,0.0,0.0
2025-07-25,13068.563845436682,15046.242568932328,0,1,,,0.0,0.0
2025-07-28,13068.563845436682,15055.216167412553,0,1,,,0.0,0.0
2025-07-29,13068.563845436682,15127.005928002152,0,1,,,0.0,0.0
2025-07-30,13068.563845436682,15091.111534081254,0,1,,,0.0,0.0
2025-07-31,13068.563845436682,15122.519615135941,0,1,,,0.0,0.0
2025-08-01,13068.563845436682,15005.859916649613,0,1,,,0.0,0.0
2025-08-04,13068.563845436682,15055.216167412553,0,1,,,0.0,0.0
2025-08-05,13068.563845436682,15225.717456780229,0,1,,,0.0,0.0
2025-08-06,13068.563845436682,15427.626827202592,0,1,,,0.0,0.0
2025-08-07,13068.563845436682,15463.520248375688,0,1,,,0.0,0.0
2025-08-08,13068.563845436682,15468.007533989701,0,1,,,0.0,0.0
2025-08-11,13068.563845436682,15629.53425212935,0,1,,,0.0,0.0
2025-08-12,13102.846521464664,15809.007194481645,1,1,BUY,,30.85150041646437,0.0
2025-08-13,13013.743162242252,15701.323039971146,1,1,,,0.0,0.0
2025-08-14,13136.260381785709,15849.388874016557,1,1,,,0.0,0.0
2025-08-15,12905.292394725162,15570.256946526322,1,1,,,0.0,0.0
2025-08-18,12932.792646495182,15603.491847954545,1,1,,,0.0,0.0
2025-08-19,12681.358438578922,15299.625862084184,1,1,,,0.0,0.0
2025-08-20,12563.498376933414,15157.188346825395,1,1,,,0.0,0.0
2025-08-21,12449.566232768375,15019.49784084395,1,1,,,0.0,0.0
2025-08-22,12516.353708354312,15100.212562523637,1,1,,,0.0,0.0
2025-08-25,12661.71402176984,15275.884979210648,1,1,,,0.0,0.0
2025-08-26,12697.071718303043,15318.615844689164,1,1,,,0.0,0.0
2025-08-27,12791.361055461246,15432.56741329268,1,1,,,0.0,0.0
2025-08-28,12807.075944987613,15451.559341393266,1,1,,,0.0,0.0
2025-08-29,12917.077756968814,15584.499919853959,1,1,,,0.0,0.0
2025-09-01,12866.005170909244,15522.777126274857,1,1,,,0.0,0.0
2025-09-02,12657.786104289371,15271.137969933305,1,1,,,0.0,0.0
2025-09-03,12614.570158091861,15218.910167656693,1,1,,,0.0,0.0
2025-09-04,12677.428911296207,15294.876907311234,1,1,,,0.0,0.0
2025-09-05,12689.215883342105,15309.121826134477,1,1,,,0.0,0.0
2025-09-08,12693.143800822574,15313.86883541182,1,1,,,0.0,0.0
2025-09-09,12779.57488831647,15418.32346721724,1,1,,,0.0,0.0
2025-09-10,12767.787916270572,15404.078548393998,1,1,,,0.0,0.0
2025-09-11,12748.145109263736,15380.339611016068,1,1,,,0.0,0.0
2025-09-12,12638.143297282535,15247.399032555375,1,1,,,0.0,0.0
2025-09-15,12653.858186808902,15266.390960655961,1,1,,,0.0,0.0
2025-09-16,12720.644857493717,15347.104709587846,1,1,,,0.0,0.0
2025-09-17,12803.146417704898,15446.810386620316,1,1,,,0.0,0.0
2025-09-18,12901.362867442447,15565.507991753373,1,1,,,0.0,0.0
2025-09-19,12956.36417588361,15631.978767357621,1,1,,,0.0,0.0
2025-09-22,13082.082487193424,15783.913219414506,1,1,,,0.0,0.0
2025-09-23,13105.654016581851,15812.400138817582,1,1,,,0.0,0.0
2025-09-24,12964.221620646793,15641.474731407914,1,1,,,0.0,0.0
2025-09-25,12822.79083451398,15470.551269493852,1,1,,,0.0,0.0
2025-09-26,12771.717443553287,15408.827503166947,1,1,,,0.0,0.0
2025-09-29,12854.219003764469,15508.533180199418,1,1,,,0.0,0.0
2025-09-30,13089.939127055484,15793.408210716996,1,1,,,0.0,0.0
2025-10-01,13148.869157878238,15864.62696834639,1,1,,,0.0,0.0
2025-10-02,13019.224538890201,15707.947452507768,1,1,,,0.0,0.0
2025-10-03,12917.077756968814,15584.499919853959,1,1,,,0.0,0.0
2025-10-06,12909.22031220563,15575.003955803666,1,1,,,0.0,0.0
2025-10-07,13011.366289225894,15698.450515709672,1,1,,,0.0,0.0
2025-10-08,12893.505422679264,15556.01202770308,1,1,,,0.0,0.0
2025-10-09,12893.505422679264,15556.01202770308,1,1,,,0.0,0.0
2025-10-10,12830.646669474918,15480.045288048539,1,1,,,0.0,0.0
2025-10-13,12771.717443553287,15408.827503166947,1,1,,,0.0,0.0
2025-10-14,12783.50280579694,15423.070476494584,1,1,,,0.0,0.0
2025-10-15,12598.855268565494,15199.918239556107,1,1,,,0.0,0.0
2025-10-16,12520.282430735904,15104.960544548783,1,1,,,0.0,0.0
2025-10-17,12579.212461558658,15176.179302178178,1,1,,,0.0,0.0
2025-10-20,12638.143297282535,15247.399032555375,1,1,,,0.0,0.0
2025-10-21,12559.569654551822,15152.440364800248,1,1,,,0.0,0.0
2025-10-22,12634.21376999982,15242.650077782426,1,1,,,0.0,0.0
2025-10-23,12598.855268565494,15199.918239556107,1,1,,,0.0,0.0
2025-10-24,12626.35713013776,15233.155086479936,1,1,,,0.0,0.0
2025-10-27,12661.71402176984,15275.884979210648,1,1,,,0.0,0.0
2025-10-28,12862.076448527652,15518.029144249711,1,1,,,0.0,0.0
2025-10-29,12759.930471507389,15394.582584343705,1,1,,,0.0,0.0
2025-10-30,12917.077756968814,15584.499919853959,1,1,,,0.0,0.0
2025-10-31,12928.863119212467,15598.742893181596,1,1,,,0.0,0.0
2025-11-03,13082.082487193424,15783.913219414506,1,1,,,0.0,0.0
2025-11-04,13239.228162852603,15973.828609429154,1,1,,,0.0,0.0
2025-11-05,13282.444109050113,16026.056411705766,1,1,,,0.0,0.0
2025-11-06,13471.02036866315,16253.956630669389,1,1,,,0.0,0.0
2025-11-07,13309.944360820133,16059.291313133988,1,1,,,0.0,0.0
2025-11-10,13514.235509959537,16306.183460198197,1,1,,,0.0,0.0
2025-11-11,13207.799993602115,15935.846698723588,1,1,,,0.0,0.0
2025-11-12,13101.726099101383,15807.653129540238,1,1,,,0.0,0.0
2025-11-13,13117.44098862775,15826.645057640824,1,1,,,0.0,0.0
2025-11-14,13298.15899857648,16045.048339806352,1,1,,,0.0,0.0
2025-11-17,13321.730527964908,16073.535259209428,1,1,,,0.0,0.0
2025-11-18,13180.299741832096,15902.611797295365,1,1,,,0.0,0.0
2025-11-19,13113.511461345035,15821.896102867875,1,1,,,0.0,0.0
2025-11-21,13093.8686543382,15798.157165489945,1,1,,,0.0,0.0
2025-11-24,13207.799993602115,15935.846698723588,1,1,,,0.0,0.0
2025-11-25,13435.661867228824,16211.22479244307,1,1,,,0.0,0.0
2025-11-26,13616.379877177555,16429.628074608598,1,1,,,0.0,0.0
2025-11-27,13573.166345683414,16377.403190575395,1,1,,,0.0,0.0
2025-11-28,13423.876504985172,16196.981819115434,1,1,,,0.0,0.0
2025-12-01,13620.30940446027,16434.377029381547,1,1,,,0.0,0.0
2025-12-02,13694.95432480939,16524.587715111527,1,1,,,0.0,0.0
2025-12-03,13675.311517802555,16500.848777733598,1,1,,,0.0,0.0
2025-12-04,13891.387224284488,16761.98292537764,1,1,,,0.0,0.0
2025-12-05,13577.094263163883,16382.150199852738,1,1,,,0.0,0.0
2025-12-08,13938.530283061344,16818.956764183793,1,1,,,0.0,0.0
2025-12-09,13871.744417277652,16738.24398799971,1,1,,,0.0,0.0
2025-12-10,13942.459810344058,16823.705718956742,1,1,,,0.0,0.0
2025-12-11,13840.314638224918,16700.26013179854,1,1,,,0.0,0.0
2025-12-12,14013.17681321271,16909.16939540938,1,1,,,0.0,0.0
2025-12-15,14068.17731675275,16975.639198265824,1,1,,,0.0,0.0
2025-12-16,13867.816499797183,16733.496978722367,1,1,,,0.0,0.0
2025-12-17,13738.169466105777,16576.814544640336,1,1,,,0.0,0.0
2025-12-18,13887.45930680402,16757.235916100297,1,1,,,0.0,0.0
2025-12-19,13879.601862040836,16747.739952050004,1,1,,,0.0,0.0
2025-12-22,13801.027414409,16652.780311547074,1,1,,,0.0,0.0
2025-12-23,13989.60447892316,16880.6815032585,1,1,,,0.0,0.0
2025-12-26,14076.034761515933,16985.135162316117,1,1,,,0.0,0.0
2025-12-29,14193.894823161441,17127.572677574906,1,1,,,0.0,0.0
2025-12-30,14225.324602214176,17165.556533776078,1,1,,,0.0,0.0
2026-01-02,14064.249399272281,16970.89218898848,1,1,,,0.0,0.0
2026-01-05,14111.392458049137,17027.866027794633,1,1,,,0.0,0.0
2026-01-06,14205.680185405094,17141.815650902543,1,1,,,0.0,0.0
2026-01-07,13930.674448100406,16809.462745629105,1,1,,,0.0,0.0
2026-01-08,13636.024293986637,16453.368957482133,1,1,,,0.0,0.0
2026-01-09,13769.599245158512,16614.798400841508,1,1,,,0.0,0.0
2026-01-12,13694.95432480939,16524.587715111527,1,1,,,0.0,0.0
2026-01-13,13651.737573710758,16472.358940087113,1,1,,,0.0,0.0
2026-01-14,13702.811769572574,16534.08367916182,1,1,,,0.0,0.0
2026-01-15,13738.169466105777,16576.814544640336,1,1,,,0.0,0.0
2026-01-16,13820.671831218082,16676.52119442061,1,1,,,0.0,0.0
2026-01-19,13883.529779521305,16752.486961327348,1,1,,,0.0,0.0
2026-01-20,14005.319368449527,16899.673431359086,1,1,,,0.0,0.0
2026-01-21,14241.037881938297,17184.54651638106,1,1,,,0.0,0.0
2026-01-22,14673.192514506656,17706.818702660355,1,1,,,0.0,0.0
2026-01-23,14555.332452861148,17564.381187401566,1,1,,,0.0,0.0
2026-01-26,14586.762231913883,17602.36504360274,1,1,,,0.0,0.0
2026-01-27,14547.475008097965,17554.885223351273,1,1,,,0.0,0.0
2026-01-28,14865.695886699039,17939.46495815352,1,1,,,0.0,0.0
2026-01-29,14771.409769145328,17825.517280541215,1,1,,,0.0,0.0
2026-01-30,14681.04995926984,17716.31466671065,1,1,,,0.0,0.0
2026-02-02,14991.41339310773,18091.3984374626,1,1,,,0.0,0.0
2026-02-03,15066.059923259098,18181.611068688188,1,1,,,0.0,0.0
2026-02-04,14618.192010966617,17640.34889980391,1,1,,,0.0,0.0
2026-02-05,14641.762735453922,17668.834846459184,1,1,,,0.0,0.0
2026-02-06,14649.620180217105,17678.330810509477,1,1,,,0.0,0.0
2026-02-09,14700.692766276676,17740.053604088578,1,1,,,0.0,0.0
2026-02-10,15038.559671489078,18148.376167259965,1,1,,,0.0,0.0
2026-02-11,15325.350771037418,18494.97204586104,1,1,,,0.0,0.0
2026-02-12,14857.838441935855,17929.968994103227,1,1,,,0.0,0.0
2026-02-13,14295.231874553043,17250.041625939164,1,1,,,0.0,0.0
2026-02-18,14155.97271165021,17081.74263759688,1,1,,,0.0,0.0
2026-02-19,14193.9527760423,17127.642715416703,1,1,,,0.0,0.0
2026-02-20,14392.291681376773,17367.34139247969,1,1,,,0.0,0.0
2026-02-23,14417.612260905582,17397.94209285811,1,1,,,0.0,0.0
2026-02-24,14725.672067729312,17770.241859398637,1,1,,,0.0,0.0
2026-02-25,14797.411295024234,17856.940925560746,1,1,,,0.0,0.0
2026-02-26,14839.612260905582,17907.94209285811,1,1,,,0.0,0.0
2026-02-27,14658.152132121402,17688.64193721846,1,1,,,0.0,0.0
2026-03-02,14687.692003337223,17724.341781578813,1,1,,,0.0,0.0
2026-03-03,14539.992647258121,17545.842559777055,1,1,,,0.0,0.0
2026-03-04,14527.331552592594,17530.541236840043,1,1,,,0.0,0.0
2026-03-05,14253.032518473941,17199.042404137406,1,1,,,0.0,0.0
2026-03-06,14455.592325297672,17443.842170677934,1,1,,,0.0,0.0
2026-03-09,14413.391359416324,17392.84100338057,1,1,,,0.0,0.0
2026-03-10,14586.411295024234,17601.940925560746,1,1,,,0.0,0.0
2026-03-11,14649.711938945133,17678.44170375899,1,1,,,0.0,0.0
2026-03-12,14527.331552592594,17530.541236840043,1,1,,,0.0,0.0
2026-03-13,14814.291681376773,17877.34139247969,1,1,,,0.0,0.0
2026-03-16,14742.552454081851,17790.642326317582,1,1,,,0.0,0.0
2026-03-17,14759.431230632144,17811.040847740922,1,1,,,0.0,0.0
2026-03-18,14590.632196513492,17607.042015038285,1,1,,,0.0,0.0
2026-03-19,14649.711938945133,17678.44170375899,1,1,,,0.0,0.0
2026-03-20,14409.172067729312,17387.741859398637,1,1,,,0.0,0.0
2026-03-23,14645.492647258121,17673.342559777055,1,1,,,0.0,0.0
2026-03-24,14565.311616984683,17576.441314659867,1,1,,,0.0,0.0
2026-03-25,14721.4527760423,17765.142715416703,1,1,,,0.0,0.0
2026-03-26,14641.271745768863,17668.241470299516,1,1,,,0.0,0.0
2026-03-27,14539.992647258121,17545.842559777055,1,1,,,0.0,0.0
2026-03-30,14497.791681376773,17494.84139247969,1,1,,,0.0,0.0
2026-03-31,14713.012582866031,17754.94248195723,1,1,,,0.0,0.0
2026-04-01,14835.391359416324,17902.84100338057,1,1,,,0.0,0.0
2026-04-02,14974.652132121402,18071.14193721846,1,1,,,0.0,0.0
2026-04-06,14978.871423808414,18076.241081200395,1,1,,,0.0,0.0
2026-04-07,14991.532518473941,18091.542404137406,1,1,,,0.0,0.0
2026-04-08,15151.891359416324,18285.34100338057,1,1,,,0.0,0.0
2026-04-09,15172.992647258121,18310.842559777055,1,1,,,0.0,0.0
2026-04-10,15388.211938945133,18570.94170375899,1,1,,,0.0,0.0
2026-04-13,15236.291681376773,18387.34139247969,1,1,,,0.0,0.0
2026-04-14,15101.251810160953,18224.14154811934,1,1,,,0.0,0.0
2026-04-15,14814.291681376773,17877.34139247969,1,1,,,0.0,0.0
2026-04-16,14797.411295024234,17856.940925560746,1,1,,,0.0,0.0
2026-04-17,14759.431230632144,17811.040847740922,1,1,,,0.0,0.0
2026-04-20,14911.351488200504,17994.64115902022,1,1,,,0.0,0.0
2026-04-22,14666.592325297672,17698.842170677934,1,1,,,0.0,0.0
2026-04-23,14485.132196513492,17479.542015038285,1,1,,,0.0,0.0
2026-04-24,14493.572389689762,17489.742248497758,1,1,,,0.0,0.0
2026-04-27,14350.092325297672,17316.342170677934,1,1,,,0.0,0.0
2026-04-28,14388.072389689762,17362.242248497758,1,1,,,0.0,0.0
2026-04-29,14265.692003337223,17214.341781578813,1,1,,,0.0,0.0
2026-04-30,14364.802402414876,17280.642326317582,0,1,SELL,,34.05296469497681,0.0
2026-05-04,14364.802402414876,17265.34100338057,0,1,,,0.0,0.0
2026-05-05,14364.802402414876,17571.342170677934,0,1,,,0.0,0.0
2026-05-06,14364.802402414876,17765.142715416703,0,1,,,0.0,0.0
2026-05-07,14364.802402414876,17494.84139247969,0,1,,,0.0,0.0
2026-05-08,14364.802402414876,17607.042015038285,0,1,,,0.0,0.0
2026-05-11,14364.802402414876,17494.84139247969,0,1,,,0.0,0.0
2026-05-12,14364.802402414876,17448.941314659867,0,1,,,0.0,0.0
2026-05-13,14364.802402414876,17357.14115902022,0,1,,,0.0,0.0
2026-05-14,14364.802402414876,17586.64154811934,0,1,,,0.0,0.0
2026-05-15,14364.802402414876,17403.041236840043,0,1,,,0.0,0.0
2026-05-18,14364.802402414876,17403.041236840043,0,1,,,0.0,0.0
2026-05-19,14364.802402414876,17295.94170375899,0,1,,,0.0,0.0
2026-05-20,14364.802402414876,17703.941314659867,0,1,,,0.0,0.0
2026-05-21,14364.802402414876,17719.24263759688,0,1,,,0.0,0.0
2026-05-22,14364.802402414876,17581.542404137406,0,1,,,0.0,0.0
2026-05-25,14364.802402414876,17658.041236840043,0,1,,,0.0,0.0
2026-05-26,14364.802402414876,17709.042404137406,0,1,,,0.0,0.0
2026-05-27,14364.802402414876,17780.44209285811,0,1,,,0.0,0.0
2026-05-28,14364.802402414876,17637.642715416703,0,1,,,0.0,0.0
2026-05-29,14364.802402414876,18055.842559777055,0,1,,,0.0,0.0
2026-06-01,14179.552989653983,17867.14115902022,1,1,BUY,,35.41770152664184,0.0
2026-06-02,14219.9539143366,17918.142326317582,1,1,,,0.0,0.0
2026-06-03,14183.593852691092,17872.242248497758,1,1,,,0.0,0.0
2026-06-05,14324.993236236014,18050.741470299516,1,1,,,0.0,0.0
2026-06-08,14518.91305129949,18295.541236840043,1,1,,,0.0,0.0
2026-06-09,14672.433482818045,18489.341781578813,1,1,,,0.0,0.0
2026-06-10,14825.9539143366,18683.142326317582,1,1,,,0.0,0.0
2026-06-11,15298.633174590506,19279.84139247969,1,1,,,0.0,0.0
2026-06-12,15326.91305129949,19315.541236840043,1,1,,,0.0,0.0
2026-06-15,15290.552989653983,19269.64115902022,1,1,,,0.0,0.0
2026-06-16,15456.192928008475,19478.741081200395,1,1,,,0.0,0.0
2026-06-17,15904.633174590506,20044.84139247969,1,1,,,0.0,0.0
2026-06-18,15961.192928008475,20116.241081200395,1,1,,,0.0,0.0
2026-06-19,15743.034099273124,19840.842559777055,1,1,,,0.0,0.0
2026-06-22,15633.9539143366,19703.142326317582,1,1,,,0.0,0.0
2026-06-23,15488.513667754569,19519.542015038285,1,1,,,0.0,0.0
2026-06-24,15654.153606109061,19728.64193721846,1,1,,,0.0,0.0
2026-06-25,15730.91305129949,19825.541236840043,1,1,,,0.0,0.0
2026-06-26,15852.112743071952,19978.540847740922,1,1,,,0.0,0.0
2026-06-29,15916.75422256414,20060.142715416703,1,1,,,0.0,0.0
2026-06-30,15852.112743071952,19978.540847740922,1,1,,,0.0,0.0
2026-07-01,15431.9539143366,19448.142326317582,1,1,,,0.0,0.0
2026-07-02,15650.112743071952,19723.540847740922,1,1,,,0.0,0.0
2026-07-03,15642.034099273124,19713.342559777055,1,1,,,0.0,0.0
2026-07-06,15666.273112944999,19743.941314659867,1,1,,,0.0,0.0
2026-07-07,15601.633174590506,19662.34139247969,1,1,,,0.0,0.0
2026-07-08,15682.433482818045,19764.341781578813,1,1,,,0.0,0.0
2026-07-09,15896.552989653983,20034.64115902022,1,1,,,0.0,0.0
2026-07-10,16328.832866362967,20580.34100338057,1,1,,,0.0,0.0
2026-07-13,16300.552989653983,20544.64115902022,1,1,,,0.0,0.0
2026-07-14,16344.993236236014,20600.741470299516,1,1,,,0.0,0.0
2026-07-15,16474.273112944997,20763.941314659867,1,1,,,0.0,0.0
2026-07-16,16664.15360610906,21003.64193721846,1,1,,,0.0,0.0
2026-07-17,16639.91305129949,20973.041236840043,1,1,,,0.0,0.0
