date,strategy_equity,benchmark_equity,strategy_position,benchmark_position,strategy_trade,benchmark_trade,strategy_trade_price,benchmark_trade_price,strategy_dividend_cash,benchmark_dividend_cash,strategy_split_ratio,benchmark_split_ratio
2024-04-15,10000.0,9794.273706686785,0,1,,BUY,0.0,22.061024236679074,0.0,0.0,1.0,1.0
2024-04-16,10000.0,9712.913568747332,0,1,,,0.0,0.0,0.0,0.0,1.0,1.0
2024-04-17,10000.0,9681.273706686785,0,1,,,0.0,0.0,0.0,0.0,1.0,1.0
2024-04-18,10000.0,9685.793810141375,0,1,,,0.0,0.0,0.0,0.0,1.0,1.0
2024-04-19,10000.0,9812.354120505144,0,1,,,0.0,0.0,0.0,0.0,1.0,1.0
2024-04-22,10000.0,9785.233499777605,0,1,,,0.0,0.0,0.0,0.0,1.0,1.0
2024-04-23,10000.0,9672.233499777605,0,1,,,0.0,0.0,0.0,0.0,1.0,1.0
2024-04-24,10000.0,9595.393465292742,0,1,,,0.0,0.0,0.0,0.0,1.0,1.0
2024-04-25,10000.0,9816.874223959734,0,1,,,0.0,0.0,0.0,0.0,1.0,1.0
2024-04-26,10000.0,9848.514086020281,0,1,,,0.0,0.0,0.0,0.0,1.0,1.0
2024-04-29,10000.0,10042.874223959734,0,1,,,0.0,0.0,0.0,0.0,1.0,1.0
2024-04-30,10000.0,9830.433672201922,0,1,,,0.0,0.0,0.0,0.0,1.0,1.0
2024-05-02,10000.0,10083.55429292946,0,1,,,0.0,0.0,0.0,0.0,1.0,1.0
2024-05-03,10000.0,10359.273706686785,0,1,,,0.0,0.0,0.0,0.0,1.0,1.0
2024-05-06,10000.0,10232.714258444597,0,1,,,0.0,0.0,0.0,0.0,1.0,1.0
2024-05-07,10000.0,10259.834017050554,0,1,,,0.0,0.0,0.0,0.0,1.0,1.0
2024-05-08,10000.0,10182.993982565691,0,1,,,0.0,0.0,0.0,0.0,1.0,1.0
2024-05-09,10000.0,10065.473879111101,0,1,,,0.0,0.0,0.0,0.0,1.0,1.0
2024-05-10,10000.0,10088.073534262468,0,1,,,0.0,0.0,0.0,0.0,1.0,1.0
2024-05-13,10000.0,10115.194154990008,0,1,,,0.0,0.0,0.0,0.0,1.0,1.0
2024-05-14,10000.0,10178.473879111101,0,1,,,0.0,0.0,0.0,0.0,1.0,1.0
2024-05-15,10000.0,10259.834017050554,0,1,,,0.0,0.0,0.0,0.0,1.0,1.0
2024-05-16,10000.0,10390.913568747332,0,1,,,0.0,0.0,0.0,0.0,1.0,1.0
2024-05-17,10000.0,10268.874223959734,0,1,,,0.0,0.0,0.0,0.0,1.0,1.0
2024-05-20,10000.0,10273.393465292742,0,1,,,0.0,0.0,0.0,0.0,1.0,1.0
2024-05-21,10000.0,10259.834017050554,0,1,,,0.0,0.0,0.0,0.0,1.0,1.0
2024-05-22,10000.0,10201.073534262468,0,1,,,0.0,0.0,0.0,0.0,1.0,1.0
2024-05-23,10000.0,9966.03418947487,0,1,,,0.0,0.0,0.0,0.0,1.0,1.0
2024-05-24,10000.0,9952.473879111101,0,1,,,0.0,0.0,0.0,0.0,1.0,1.0
2024-05-27,10000.0,10038.354120505144,0,1,,,0.0,0.0,0.0,0.0,1.0,1.0
2024-05-28,10000.0,9938.913568747332,0,1,,,0.0,0.0,0.0,0.0,1.0,1.0
2024-05-29,10000.0,9740.03418947487,0,1,,,0.0,0.0,0.0,0.0,1.0,1.0
2024-05-31,10000.0,9807.834017050554,0,1,,,0.0,0.0,0.0,0.0,1.0,1.0
2024-06-03,10000.0,9916.313913595965,0,1,,,0.0,0.0,0.0,0.0,1.0,1.0
2024-06-04,10000.0,9898.233499777605,0,1,,,0.0,0.0,0.0,0.0,1.0,1.0
2024-06-05,10000.0,9898.233499777605,0,1,,,0.0,0.0,0.0,0.0,1.0,1.0
2024-06-06,10000.0,9984.113741171648,0,1,,,0.0,0.0,0.0,0.0,1.0,1.0
2024-06-07,10000.0,9925.354120505144,0,1,,,0.0,0.0,0.0,0.0,1.0,1.0
2024-06-10,10000.0,9843.993982565691,0,1,,,0.0,0.0,0.0,0.0,1.0,1.0
2024-06-11,10000.0,10092.593637717058,0,1,,,0.0,0.0,0.0,0.0,1.0,1.0
2024-06-12,10000.0,9893.714258444597,0,1,,,0.0,0.0,0.0,0.0,1.0,1.0
2024-06-13,10000.0,9916.313913595965,0,1,,,0.0,0.0,0.0,0.0,1.0,1.0
2024-06-14,10000.0,10146.834017050554,0,1,,,0.0,0.0,0.0,0.0,1.0,1.0
2024-06-17,10000.0,9857.55429292946,0,1,,,0.0,0.0,0.0,0.0,1.0,1.0
2024-06-18,10000.0,9834.953775656511,0,1,,,0.0,0.0,0.0,0.0,1.0,1.0
2024-06-19,10000.0,9934.393465292742,0,1,,,0.0,0.0,0.0,0.0,1.0,1.0
2024-06-20,10000.0,10074.514086020281,0,1,,,0.0,0.0,0.0,0.0,1.0,1.0
2024-06-21,10000.0,10354.753603232195,0,1,,,0.0,0.0,0.0,0.0,1.0,1.0
2024-06-24,10165.612772246948,10603.354120505144,1,1,BUY,,23.011499999999998,0.0,0.0,0.0,1.0,1.0
2024-06-25,10191.592541,10630.473879111101,1,1,,,0.0,0.0,0.0,0.0,1.0,1.0
2024-06-26,10152.622474929443,10589.793810141375,1,1,,,0.0,0.0,0.0,0.0,1.0,1.0
2024-06-27,10135.302904388062,10571.714258444597,1,1,,,0.0,0.0,0.0,0.0,1.0,1.0
2024-06-28,10126.642706176392,10562.674051535418,1,1,,,0.0,0.0,0.0,0.0,1.0,1.0
2024-07-01,10053.032673141113,10485.834017050554,1,1,,,0.0,0.0,0.0,0.0,1.0,1.0
2024-07-02,10066.02214457666,10499.393465292742,1,1,,,0.0,0.0,0.0,0.0,1.0,1.0
2024-07-03,10239.222805282227,10680.194154990008,1,1,,,0.0,0.0,0.0,0.0,1.0,1.0
2024-07-04,10628.922640105835,11086.993982565691,1,1,,,0.0,0.0,0.0,0.0,1.0,1.0
2024-07-05,10728.512441894165,11190.953775656511,1,1,,,0.0,0.0,0.0,0.0,1.0,1.0
2024-07-08,10581.292375823608,11037.273706686785,1,1,,,0.0,0.0,0.0,0.0,1.0,1.0
2024-07-09,10745.832838317505,11209.03418947487,1,1,,,0.0,0.0,0.0,0.0,1.0,1.0
2024-07-10,10295.512441894165,10738.953775656511,1,1,,,0.0,0.0,0.0,0.0,1.0,1.0
2024-07-11,10256.542375823608,10698.273706686785,1,1,,,0.0,0.0,0.0,0.0,1.0,1.0
2024-07-12,10143.962276717773,10580.753603232195,1,1,,,0.0,0.0,0.0,0.0,1.0,1.0
2024-07-15,10104.992210647217,10540.073534262468,1,1,,,0.0,0.0,0.0,0.0,1.0,1.0
2024-07-16,10035.712276717773,10467.753603232195,1,1,,,0.0,0.0,0.0,0.0,1.0,1.0
2024-07-17,10195.922640105835,10634.993982565691,1,1,,,0.0,0.0,0.0,0.0,1.0,1.0
2024-07-18,10187.262441894165,10625.953775656511,1,1,,,0.0,0.0,0.0,0.0,1.0,1.0
2024-07-19,10040.042375823608,10472.273706686785,1,1,,,0.0,0.0,0.0,0.0,1.0,1.0
2024-07-22,9901.482507964722,10327.633844626238,1,1,,,0.0,0.0,0.0,0.0,1.0,1.0
2024-07-23,9420.852243682495,9825.913568747332,1,1,,,0.0,0.0,0.0,0.0,1.0,1.0
2024-07-24,9358.477069310045,9776.194154990008,0,1,SELL,,21.61918416118622,0.0,0.0,0.0,1.0,1.0
2024-07-25,9358.477069310045,9685.793810141375,0,1,,,0.0,0.0,0.0,0.0,1.0,1.0
2024-07-26,9358.477069310045,9703.874223959734,0,1,,,0.0,0.0,0.0,0.0,1.0,1.0
2024-07-29,9358.477069310045,9645.113741171648,0,1,,,0.0,0.0,0.0,0.0,1.0,1.0
2024-07-30,9358.477069310045,9721.953775656511,0,1,,,0.0,0.0,0.0,0.0,1.0,1.0
2024-07-31,9358.477069310045,9834.953775656511,0,1,,,0.0,0.0,0.0,0.0,1.0,1.0
2024-08-01,9358.477069310045,9993.153948080828,0,1,,,0.0,0.0,0.0,0.0,1.0,1.0
2024-08-02,9358.477069310045,10173.953775656511,0,1,,,0.0,0.0,0.0,0.0,1.0,1.0
2024-08-05,9358.477069310045,10115.194154990008,0,1,,,0.0,0.0,0.0,0.0,1.0,1.0
2024-08-06,9358.477069310045,10002.194154990008,0,1,,,0.0,0.0,0.0,0.0,1.0,1.0
2024-08-07,9358.477069310045,10255.313913595965,0,1,,,0.0,0.0,0.0,0.0,1.0,1.0
2024-08-08,9358.477069310045,10404.473879111101,0,1,,,0.0,0.0,0.0,0.0,1.0,1.0
2024-08-09,9358.477069310045,10653.073534262468,0,1,,,0.0,0.0,0.0,0.0,1.0,1.0
2024-08-12,9358.477069310045,10707.313913595965,0,1,,,0.0,0.0,0.0,0.0,1.0,1.0
2024-08-13,9358.477069310045,10802.233499777605,0,1,,,0.0,0.0,0.0,0.0,1.0,1.0
2024-08-14,9358.477069310045,10910.714258444597,0,1,,,0.0,0.0,0.0,0.0,1.0,1.0
2024-08-15,9212.259856030261,10847.433672201922,1,1,BUY,,24.312149236679076,0.0,0.0,0.0,1.0,1.0
2024-08-16,9146.979826733386,10770.593637717058,1,1,,,0.0,0.0,0.0,0.0,1.0,1.0
2024-08-19,9208.419768139636,10842.913568747332,1,1,,,0.0,0.0,0.0,0.0,1.0,1.0
2024-08-20,9285.220061108386,10933.313913595965,1,1,,,0.0,0.0,0.0,0.0,1.0,1.0
2024-08-21,9296.740324780261,10946.874223959734,1,1,,,0.0,0.0,0.0,0.0,1.0,1.0
2024-08-22,9239.139738842761,10879.073534262468,1,1,,,0.0,0.0,0.0,0.0,1.0,1.0
2024-08-23,9438.819914624011,11114.113741171648,1,1,,,0.0,0.0,0.0,0.0,1.0,1.0
2024-08-26,9350.500090405261,11010.153948080828,1,1,,,0.0,0.0,0.0,0.0,1.0,1.0
2024-08-27,9281.379973217761,10928.793810141375,1,1,,,0.0,0.0,0.0,0.0,1.0,1.0
2024-08-28,9239.139738842761,10879.073534262468,1,1,,,0.0,0.0,0.0,0.0,1.0,1.0
2024-08-29,9047.139738842761,10653.073534262468,1,1,,,0.0,0.0,0.0,0.0,1.0,1.0
2024-08-30,8989.539885327136,10585.273706686785,1,1,,,0.0,0.0,0.0,0.0,1.0,1.0
2024-09-02,8805.220061108386,10368.313913595965,1,1,,,0.0,0.0,0.0,0.0,1.0,1.0
2024-09-03,8739.940031811511,10291.473879111101,1,1,,,0.0,0.0,0.0,0.0,1.0,1.0
2024-09-04,8836.851082285877,10395.433672201922,0,1,SELL,,23.04846946620941,0.0,0.0,0.0,1.0,1.0
2024-09-05,8836.851082285877,10408.993982565691,0,1,,,0.0,0.0,0.0,0.0,1.0,1.0
2024-09-06,8836.851082285877,10449.674051535418,0,1,,,0.0,0.0,0.0,0.0,1.0,1.0
2024-09-09,8836.851082285877,10354.753603232195,0,1,,,0.0,0.0,0.0,0.0,1.0,1.0
2024-09-10,8836.851082285877,10494.874223959734,0,1,,,0.0,0.0,0.0,0.0,1.0,1.0
2024-09-11,8836.851082285877,10314.073534262468,0,1,,,0.0,0.0,0.0,0.0,1.0,1.0
2024-09-12,8836.851082285877,10431.593637717058,0,1,,,0.0,0.0,0.0,0.0,1.0,1.0
2024-09-13,8836.851082285877,10472.273706686785,0,1,,,0.0,0.0,0.0,0.0,1.0,1.0
2024-09-16,8836.851082285877,10404.473879111101,0,1,,,0.0,0.0,0.0,0.0,1.0,1.0
2024-09-17,8836.851082285877,10440.633844626238,0,1,,,0.0,0.0,0.0,0.0,1.0,1.0
2024-09-18,8836.851082285877,10336.674051535418,0,1,,,0.0,0.0,0.0,0.0,1.0,1.0
2024-09-19,8836.851082285877,10201.073534262468,0,1,,,0.0,0.0,0.0,0.0,1.0,1.0
2024-09-20,8836.851082285877,10237.233499777605,0,1,,,0.0,0.0,0.0,0.0,1.0,1.0
2024-09-23,8836.851082285877,10015.753603232195,0,1,,,0.0,0.0,0.0,0.0,1.0,1.0
2024-09-24,8836.851082285877,10033.834017050554,0,1,,,0.0,0.0,0.0,0.0,1.0,1.0
2024-09-25,8836.851082285877,10065.473879111101,0,1,,,0.0,0.0,0.0,0.0,1.0,1.0
2024-09-26,8836.851082285877,10083.55429292946,0,1,,,0.0,0.0,0.0,0.0,1.0,1.0
2024-09-27,8836.851082285877,10110.674051535418,0,1,,,0.0,0.0,0.0,0.0,1.0,1.0
2024-09-30,8836.851082285877,10223.674051535418,0,1,,,0.0,0.0,0.0,0.0,1.0,1.0
2024-10-01,8836.851082285877,10024.793810141375,0,1,,,0.0,0.0,0.0,0.0,1.0,1.0
2024-10-02,8836.851082285877,10345.714258444597,0,1,,,0.0,0.0,0.0,0.0,1.0,1.0
2024-10-03,8836.851082285877,10422.55429292946,0,1,,,0.0,0.0,0.0,0.0,1.0,1.0
2024-10-04,8836.851082285877,10503.913568747332,0,1,,,0.0,0.0,0.0,0.0,1.0,1.0
2024-10-07,8836.851082285877,10567.194154990008,0,1,,,0.0,0.0,0.0,0.0,1.0,1.0
2024-10-08,8836.851082285877,10463.233499777605,0,1,,,0.0,0.0,0.0,0.0,1.0,1.0
2024-10-09,8836.851082285877,10237.233499777605,0,1,,,0.0,0.0,0.0,0.0,1.0,1.0
2024-10-10,8836.851082285877,10047.393465292742,0,1,,,0.0,0.0,0.0,0.0,1.0,1.0
2024-10-11,8836.851082285877,9875.633844626238,0,1,,,0.0,0.0,0.0,0.0,1.0,1.0
2024-10-14,8836.851082285877,10083.55429292946,0,1,,,0.0,0.0,0.0,0.0,1.0,1.0
2024-10-15,8836.851082285877,9988.633844626238,0,1,,,0.0,0.0,0.0,0.0,1.0,1.0
2024-10-16,8836.851082285877,10042.874223959734,0,1,,,0.0,0.0,0.0,0.0,1.0,1.0
2024-10-17,8836.851082285877,10115.194154990008,0,1,,,0.0,0.0,0.0,0.0,1.0,1.0
2024-10-18,8836.851082285877,9947.953775656511,0,1,,,0.0,0.0,0.0,0.0,1.0,1.0
2024-10-21,8836.851082285877,9929.874223959734,0,1,,,0.0,0.0,0.0,0.0,1.0,1.0
2024-10-22,8836.851082285877,9839.473879111101,0,1,,,0.0,0.0,0.0,0.0,1.0,1.0
2024-10-23,8836.851082285877,10042.874223959734,0,1,,,0.0,0.0,0.0,0.0,1.0,1.0
2024-10-24,8836.851082285877,10282.433672201922,0,1,,,0.0,0.0,0.0,0.0,1.0,1.0
2024-10-25,8836.851082285877,10092.593637717058,0,1,,,0.0,0.0,0.0,0.0,1.0,1.0
2024-10-28,8836.851082285877,10133.273706686785,0,1,,,0.0,0.0,0.0,0.0,1.0,1.0
2024-10-29,8836.851082285877,10097.113741171648,0,1,,,0.0,0.0,0.0,0.0,1.0,1.0
2024-10-30,8836.851082285877,10314.073534262468,0,1,,,0.0,0.0,0.0,0.0,1.0,1.0
2024-10-31,8836.851082285877,10232.714258444597,0,1,,,0.0,0.0,0.0,0.0,1.0,1.0
2024-11-01,8836.851082285877,10133.273706686785,0,1,,,0.0,0.0,0.0,0.0,1.0,1.0
2024-11-04,8836.851082285877,10205.593637717058,0,1,,,0.0,0.0,0.0,0.0,1.0,1.0
2024-11-05,8836.851082285877,10164.913568747332,0,1,,,0.0,0.0,0.0,0.0,1.0,1.0
2024-11-06,8836.851082285877,10630.473879111101,0,1,,,0.0,0.0,0.0,0.0,1.0,1.0
2024-11-07,8875.621215612446,10558.153948080828,1,1,BUY,,23.19159030532837,0.0,0.0,0.0,1.0,1.0
2024-11-08,8883.221389562641,10567.194154990008,1,1,,,0.0,0.0,0.0,0.0,1.0,1.0
2024-11-11,8716.021186620746,10368.313913595965,1,1,,,0.0,0.0,0.0,0.0,1.0,1.0
2024-11-12,8503.221389562641,10115.194154990008,1,1,,,0.0,0.0,0.0,0.0,1.0,1.0
2024-11-13,8214.421302587543,9771.674051535418,1,1,,,0.0,0.0,0.0,0.0,1.0,1.0
2024-11-14,8419.620925695453,10015.753603232195,1,1,,,0.0,0.0,0.0,0.0,1.0,1.0
2024-11-18,8670.420867712055,10314.073534262468,1,1,,,0.0,0.0,0.0,0.0,1.0,1.0
2024-11-19,8529.821273595844,10146.834017050554,1,1,,,0.0,0.0,0.0,0.0,1.0,1.0
2024-11-21,8260.020896703754,9825.913568747332,1,1,,,0.0,0.0,0.0,0.0,1.0,1.0
2024-11-22,8252.42144754604,9816.874223959734,1,1,,,0.0,0.0,0.0,0.0,1.0,1.0
2024-11-25,7914.220954687153,9414.593637717058,1,1,,,0.0,0.0,0.0,0.0,1.0,1.0
2024-11-26,7928.5739550328035,9500.473879111101,0,1,SELL,,20.88954961872101,0.0,0.0,0.0,1.0,1.0
2024-11-27,7928.5739550328035,9346.793810141375,0,1,,,0.0,0.0,0.0,0.0,1.0,1.0
2024-11-28,7928.5739550328035,9075.593637717058,0,1,,,0.0,0.0,0.0,0.0,1.0,1.0
2024-11-29,7928.5739550328035,9138.874223959734,0,1,,,0.0,0.0,0.0,0.0,1.0,1.0
2024-12-02,7928.5739550328035,8899.313913595965,0,1,,,0.0,0.0,0.0,0.0,1.0,1.0
2024-12-03,7928.5739550328035,8935.473879111101,0,1,,,0.0,0.0,0.0,0.0,1.0,1.0
2024-12-04,7928.5739550328035,8908.354120505144,0,1,,,0.0,0.0,0.0,0.0,1.0,1.0
2024-12-05,7928.5739550328035,9048.473879111101,0,1,,,0.0,0.0,0.0,0.0,1.0,1.0
2024-12-06,7928.5739550328035,9767.153948080828,0,1,,,0.0,0.0,0.0,0.0,1.0,1.0
2024-12-09,7928.5739550328035,9821.393465292742,0,1,,,0.0,0.0,0.0,0.0,1.0,1.0
2024-12-10,7928.5739550328035,9889.194154990008,0,1,,,0.0,0.0,0.0,0.0,1.0,1.0
2024-12-11,7928.5739550328035,9702.821416201921,0,1,,,0.0,0.0,0.0,776.387744,1.0,1.0
2024-12-12,7928.5739550328035,9390.94203692946,0,1,,,0.0,0.0,0.0,0.0,1.0,1.0
2024-12-13,7928.5739550328035,9436.141347232195,0,1,,,0.0,0.0,0.0,0.0,1.0,1.0
2024-12-16,7928.5739550328035,9164.94203692946,0,1,,,0.0,0.0,0.0,0.0,1.0,1.0
2024-12-17,7928.5739550328035,9173.981381717058,0,1,,,0.0,0.0,0.0,0.0,1.0,1.0
2024-12-18,7928.5739550328035,8893.741864505144,0,1,,,0.0,0.0,0.0,0.0,1.0,1.0
2024-12-19,7928.5739550328035,9083.581898990007,0,1,,,0.0,0.0,0.0,0.0,1.0,1.0
2024-12-20,7928.5739550328035,8929.90183002028,0,1,,,0.0,0.0,0.0,0.0,1.0,1.0
2024-12-23,7928.5739550328035,8844.021588626238,0,1,,,0.0,0.0,0.0,0.0,1.0,1.0
2024-12-26,7928.5739550328035,9079.061795535417,0,1,,,0.0,0.0,0.0,0.0,1.0,1.0
2024-12-27,7928.5739550328035,9042.90183002028,0,1,,,0.0,0.0,0.0,0.0,1.0,1.0
2024-12-30,7928.5739550328035,8925.38172656569,0,1,,,0.0,0.0,0.0,0.0,1.0,1.0
2025-01-02,7928.5739550328035,9115.221761050554,0,1,,,0.0,0.0,0.0,0.0,1.0,1.0
2025-01-03,7928.5739550328035,8911.821416201921,0,1,,,0.0,0.0,0.0,0.0,1.0,1.0
2025-01-06,7928.5739550328035,9210.141347232195,0,1,,,0.0,0.0,0.0,0.0,1.0,1.0
2025-01-07,7928.5739550328035,9296.021588626238,0,1,,,0.0,0.0,0.0,0.0,1.0,1.0
2025-01-08,7928.5739550328035,9164.94203692946,0,1,,,0.0,0.0,0.0,0.0,1.0,1.0
2025-01-09,7928.5739550328035,9101.661450686785,0,1,,,0.0,0.0,0.0,0.0,1.0,1.0
2025-01-10,7928.5739550328035,8929.90183002028,0,1,,,0.0,0.0,0.0,0.0,1.0,1.0
2025-01-13,7928.5739550328035,8916.341519656511,0,1,,,0.0,0.0,0.0,0.0,1.0,1.0
2025-01-14,7928.5739550328035,9056.461278262468,0,1,,,0.0,0.0,0.0,0.0,1.0,1.0
2025-01-15,7928.5739550328035,9363.821416201921,0,1,,,0.0,0.0,0.0,0.0,1.0,1.0
2025-01-16,7928.5739550328035,9214.661450686785,0,1,,,0.0,0.0,0.0,0.0,1.0,1.0
2025-01-17,7928.5739550328035,9255.341519656511,0,1,,,0.0,0.0,0.0,0.0,1.0,1.0
2025-01-20,7928.5739550328035,9232.741864505144,0,1,,,0.0,0.0,0.0,0.0,1.0,1.0
2025-01-21,7928.5739550328035,9101.661450686785,0,1,,,0.0,0.0,0.0,0.0,1.0,1.0
2025-01-22,7928.5739550328035,9056.461278262468,0,1,,,0.0,0.0,0.0,0.0,1.0,1.0
2025-01-23,7928.5739550328035,8902.781209292742,0,1,,,0.0,0.0,0.0,0.0,1.0,1.0
2025-01-24,7928.5739550328035,8265.461278262468,0,1,,,0.0,0.0,0.0,0.0,1.0,1.0
2025-01-27,7928.5739550328035,8848.541692080827,0,1,,,0.0,0.0,0.0,0.0,1.0,1.0
2025-01-28,7928.5739550328035,8640.621243777605,0,1,,,0.0,0.0,0.0,0.0,1.0,1.0
2025-01-29,7928.5739550328035,8685.821416201921,0,1,,,0.0,0.0,0.0,0.0,1.0,1.0
2025-01-30,7928.5739550328035,9065.501485171648,0,1,,,0.0,0.0,0.0,0.0,1.0,1.0
2025-01-31,7928.5739550328035,9327.661450686785,0,1,,,0.0,0.0,0.0,0.0,1.0,1.0
2025-02-03,7928.5739550328035,9372.861623111101,0,1,,,0.0,0.0,0.0,0.0,1.0,1.0
2025-02-04,7928.5739550328035,9481.341519656511,0,1,,,0.0,0.0,0.0,0.0,1.0,1.0
2025-02-05,7908.807901614812,9413.541692080827,1,1,BUY,,19.099545152664184,0.0,0.0,0.0,1.0,1.0
2025-02-06,8302.108217471745,9842.94203692946,1,1,,,0.0,0.0,0.0,0.0,1.0,1.0
2025-02-07,7871.5478384434255,9372.861623111101,1,1,,,0.0,0.0,0.0,0.0,1.0,1.0
2025-02-10,7784.608217471746,9277.94203692946,1,1,,,0.0,0.0,0.0,0.0,1.0,1.0
2025-02-11,7792.887617343572,9286.981381717058,1,1,,,0.0,0.0,0.0,0.0,1.0,1.0
2025-02-12,7498.947996371892,8966.061795535417,1,1,,,0.0,0.0,0.0,0.0,1.0,1.0
2025-02-13,7619.007585757879,9097.141347232195,1,1,,,0.0,0.0,0.0,0.0,1.0,1.0
2025-02-14,7883.968122714666,9386.42193347487,1,1,,,0.0,0.0,0.0,0.0,1.0,1.0
2025-02-17,7883.968122714666,9386.42193347487,1,1,,,0.0,0.0,0.0,0.0,1.0,1.0
2025-02-18,7867.407743686345,9368.341519656511,1,1,,,0.0,0.0,0.0,0.0,1.0,1.0
2025-02-19,7912.947996371892,9418.061795535417,1,1,,,0.0,0.0,0.0,0.0,1.0,1.0
2025-02-20,7838.427870029119,9336.701657595964,1,1,,,0.0,0.0,0.0,0.0,1.0,1.0
2025-02-21,7813.588091128972,9309.581898990007,1,1,,,0.0,0.0,0.0,0.0,1.0,1.0
2025-02-24,7639.708059543279,9119.741864505144,1,1,,,0.0,0.0,0.0,0.0,1.0,1.0
2025-02-25,7813.588091128972,9309.581898990007,1,1,,,0.0,0.0,0.0,0.0,1.0,1.0
2025-02-26,7548.627554172185,9020.301312747331,1,1,,,0.0,0.0,0.0,0.0,1.0,1.0
2025-02-27,7569.328027957586,9042.90183002028,1,1,,,0.0,0.0,0.0,0.0,1.0,1.0
2025-02-28,7585.887617343572,9060.981381717058,1,1,,,0.0,0.0,0.0,0.0,1.0,1.0
2025-03-05,7022.848154300359,8446.261967959734,1,1,,,0.0,0.0,0.0,0.0,1.0,1.0
2025-03-06,7025.959876443426,8649.661450686785,0,1,SELL,,16.991500000000002,0.0,0.0,0.0,1.0,1.0
2025-03-07,7025.959876443426,8636.102002444597,0,1,,,0.0,0.0,0.0,0.0,1.0,1.0
2025-03-10,7025.959876443426,8658.701657595964,0,1,,,0.0,0.0,0.0,0.0,1.0,1.0
2025-03-11,7025.959876443426,8672.261967959734,0,1,,,0.0,0.0,0.0,0.0,1.0,1.0
2025-03-12,7025.959876443426,8753.621243777605,0,1,,,0.0,0.0,0.0,0.0,1.0,1.0
2025-03-13,7025.959876443426,8785.261967959734,0,1,,,0.0,0.0,0.0,0.0,1.0,1.0
2025-03-14,7025.959876443426,8943.461278262468,0,1,,,0.0,0.0,0.0,0.0,1.0,1.0
2025-03-17,7025.959876443426,9115.221761050554,0,1,,,0.0,0.0,0.0,0.0,1.0,1.0
2025-03-18,7025.959876443426,9015.781209292742,0,1,,,0.0,0.0,0.0,0.0,1.0,1.0
2025-03-19,7025.959876443426,9101.661450686785,0,1,,,0.0,0.0,0.0,0.0,1.0,1.0
2025-03-20,7025.959876443426,9056.461278262468,0,1,,,0.0,0.0,0.0,0.0,1.0,1.0
2025-03-21,7025.959876443426,8979.621243777605,0,1,,,0.0,0.0,0.0,0.0,1.0,1.0
2025-03-24,7025.959876443426,8898.261967959734,0,1,,,0.0,0.0,0.0,0.0,1.0,1.0
2025-03-25,7025.959876443426,9015.781209292742,0,1,,,0.0,0.0,0.0,0.0,1.0,1.0
2025-03-26,7025.959876443426,9101.661450686785,0,1,,,0.0,0.0,0.0,0.0,1.0,1.0
2025-03-27,7025.959876443426,9228.221761050554,0,1,,,0.0,0.0,0.0,0.0,1.0,1.0
2025-03-28,7025.959876443426,9056.461278262468,0,1,,,0.0,0.0,0.0,0.0,1.0,1.0
2025-03-31,7025.959876443426,9024.821416201921,0,1,,,0.0,0.0,0.0,0.0,1.0,1.0
2025-04-01,7025.959876443426,9164.94203692946,0,1,,,0.0,0.0,0.0,0.0,1.0,1.0
2025-04-02,7025.959876443426,9101.661450686785,0,1,,,0.0,0.0,0.0,0.0,1.0,1.0
2025-04-03,7025.959876443426,9201.102002444597,0,1,,,0.0,0.0,0.0,0.0,1.0,1.0
2025-04-04,7025.959876443426,8866.621243777605,0,1,,,0.0,0.0,0.0,0.0,1.0,1.0
2025-04-07,7025.959876443426,8907.301312747331,0,1,,,0.0,0.0,0.0,0.0,1.0,1.0
2025-04-08,7025.959876443426,8898.261967959734,0,1,,,0.0,0.0,0.0,0.0,1.0,1.0
2025-04-09,7025.959876443426,9377.38172656569,0,1,,,0.0,0.0,0.0,0.0,1.0,1.0
2025-04-10,7025.959876443426,9142.341519656511,0,1,,,0.0,0.0,0.0,0.0,1.0,1.0
2025-04-11,7025.959876443426,9273.42193347487,0,1,,,0.0,0.0,0.0,0.0,1.0,1.0
2025-04-14,7025.959876443426,9241.781209292742,0,1,,,0.0,0.0,0.0,0.0,1.0,1.0
2025-04-15,7025.959876443426,9259.861623111101,0,1,,,0.0,0.0,0.0,0.0,1.0,1.0
2025-04-16,7025.959876443426,9363.821416201921,0,1,,,0.0,0.0,0.0,0.0,1.0,1.0
2025-04-17,7025.959876443426,9445.181554141374,0,1,,,0.0,0.0,0.0,0.0,1.0,1.0
2025-04-22,7025.959876443426,9544.621243777605,0,1,,,0.0,0.0,0.0,0.0,1.0,1.0
2025-04-23,6930.153529592658,9562.701657595964,1,1,BUY,,19.64981938934326,0.0,0.0,0.0,1.0,1.0
2025-04-24,7165.113475271369,9861.021588626238,1,1,,,0.0,0.0,0.0,0.0,1.0,1.0
2025-04-25,7140.193583913947,9829.38172656569,1,1,,,0.0,0.0,0.0,0.0,1.0,1.0
2025-04-28,7190.033366628791,9892.661450686785,1,1,,,0.0,0.0,0.0,0.0,1.0,1.0
2025-04-29,7271.9132036649235,9996.621243777605,1,1,,,0.0,0.0,0.0,0.0,1.0,1.0
2025-04-30,7492.633502432013,10276.861623111101,1,1,,,0.0,0.0,0.0,0.0,1.0,1.0
2025-05-02,7588.7536653958805,10398.90183002028,1,1,,,0.0,0.0,0.0,0.0,1.0,1.0
2025-05-05,7624.353801199103,10444.102002444597,1,1,,,0.0,0.0,0.0,0.0,1.0,1.0
2025-05-06,7604.996331271369,10419.524540626238,1,1,,,0.0,0.0,83.882856,106.50295200000001,1.0,1.0
2025-05-07,7348.67657571717,10094.084850990008,1,1,,,0.0,0.0,0.0,0.0,1.0,1.0
2025-05-08,7487.5163584320135,10270.364575111102,1,1,,,0.0,0.0,0.0,0.0,1.0,1.0
2025-05-09,7487.5163584320135,10270.364575111102,1,1,,,0.0,0.0,0.0,0.0,1.0,1.0
2025-05-12,7402.076439913947,10161.884678565692,1,1,,,0.0,0.0,0.0,0.0,1.0,1.0
2025-05-13,7434.116494235236,10202.564747535418,1,1,,,0.0,0.0,0.0,0.0,1.0,1.0
2025-05-14,7412.756684359748,10175.444988929461,1,1,,,0.0,0.0,0.0,0.0,1.0,1.0
2025-05-15,7690.436249789435,10528.004437171649,1,1,,,0.0,0.0,0.0,0.0,1.0,1.0
2025-05-16,7583.636521395881,10392.404782020281,1,1,,,0.0,0.0,0.0,0.0,1.0,1.0
2025-05-19,7708.236657199103,10550.604954444598,1,1,,,0.0,0.0,0.0,0.0,1.0,1.0
2025-05-20,7946.756684359748,10853.444988929461,1,1,,,0.0,0.0,0.0,0.0,1.0,1.0
2025-05-21,7686.876168307502,10523.484333717059,1,1,,,0.0,0.0,0.0,0.0,1.0,1.0
2025-05-22,7818.596467074592,10690.724713050555,1,1,,,0.0,0.0,0.0,0.0,1.0,1.0
2025-05-23,7800.796059664924,10668.124195777606,1,1,,,0.0,0.0,0.0,0.0,1.0,1.0
2025-05-26,7594.316086825568,10405.964230262469,1,1,,,0.0,0.0,0.0,0.0,1.0,1.0
2025-05-27,7879.116494235236,10767.564747535418,1,1,,,0.0,0.0,0.0,0.0,1.0,1.0
2025-05-28,7765.196602877814,10622.924885474871,1,1,,,0.0,0.0,0.0,0.0,1.0,1.0
2025-05-29,7754.5163584320135,10609.364575111102,1,1,,,0.0,0.0,0.0,0.0,1.0,1.0
2025-05-30,7626.356141146857,10446.644299232195,1,1,,,0.0,0.0,0.0,0.0,1.0,1.0
2025-06-02,7686.876168307502,10523.484333717059,1,1,,,0.0,0.0,0.0,0.0,1.0,1.0
2025-06-03,7782.996331271369,10645.524540626238,1,1,,,0.0,0.0,0.0,0.0,1.0,1.0
2025-06-04,7832.836113986213,10708.804264747332,1,1,,,0.0,0.0,0.0,0.0,1.0,1.0
2025-06-05,7793.67657571717,10659.084850990008,1,1,,,0.0,0.0,0.0,0.0,1.0,1.0
2025-06-06,7775.876168307502,10636.484333717059,1,1,,,0.0,0.0,0.0,0.0,1.0,1.0
2025-06-09,7612.116494235236,10428.564747535418,1,1,,,0.0,0.0,0.0,0.0,1.0,1.0
2025-06-10,7726.036385592658,10573.204609595965,1,1,,,0.0,0.0,0.0,0.0,1.0,1.0
2025-06-11,7608.5564127533025,10424.044644080828,1,1,,,0.0,0.0,0.0,0.0,1.0,1.0
2025-06-12,7523.116494235236,10315.564747535418,1,1,,,0.0,0.0,0.0,0.0,1.0,1.0
2025-06-13,7480.396195468146,10261.324368201922,1,1,,,0.0,0.0,0.0,0.0,1.0,1.0
2025-06-16,7508.876168307502,10297.484333717059,1,1,,,0.0,0.0,0.0,0.0,1.0,1.0
2025-06-17,7629.916222628791,10451.164402686785,1,1,,,0.0,0.0,0.0,0.0,1.0,1.0
2025-06-18,7576.5163584320135,10383.364575111102,1,1,,,0.0,0.0,0.0,0.0,1.0,1.0
2025-06-20,7480.396195468146,10261.324368201922,1,1,,,0.0,0.0,0.0,0.0,1.0,1.0
2025-06-23,7391.396195468146,10148.324368201922,1,1,,,0.0,0.0,0.0,0.0,1.0,1.0
2025-06-24,7562.276032504279,10365.284161292742,1,1,,,0.0,0.0,0.0,0.0,1.0,1.0
2025-06-25,7348.67657571717,10094.084850990008,1,1,,,0.0,0.0,0.0,0.0,1.0,1.0
2025-06-26,7434.116494235236,10202.564747535418,1,1,,,0.0,0.0,0.0,0.0,1.0,1.0
2025-06-27,7476.836113986213,10256.804264747332,1,1,,,0.0,0.0,0.0,0.0,1.0,1.0
2025-06-30,7558.716630038459,10360.764919959734,1,1,,,0.0,0.0,0.0,0.0,1.0,1.0
2025-07-01,7501.756684359748,10288.444988929461,1,1,,,0.0,0.0,0.0,0.0,1.0,1.0
2025-07-02,7309.5163584320135,10044.364575111102,1,1,,,0.0,0.0,0.0,0.0,1.0,1.0
2025-07-03,7344.767485368164,10238.724713050555,0,1,SELL,,20.38979961872101,0.0,0.0,0.0,1.0,1.0
2025-07-04,7344.767485368164,10283.924885474871,0,1,,,0.0,0.0,0.0,0.0,1.0,1.0
2025-07-07,7344.767485368164,10112.164402686785,0,1,,,0.0,0.0,0.0,0.0,1.0,1.0
2025-07-08,7344.767485368164,10288.444988929461,0,1,,,0.0,0.0,0.0,0.0,1.0,1.0
2025-07-09,7344.767485368164,10170.924885474871,0,1,,,0.0,0.0,0.0,0.0,1.0,1.0
2025-07-10,7344.767485368164,10012.724713050555,0,1,,,0.0,0.0,0.0,0.0,1.0,1.0
2025-07-11,7344.767485368164,9972.044644080828,0,1,,,0.0,0.0,0.0,0.0,1.0,1.0
2025-07-14,7344.767485368164,9990.124195777606,0,1,,,0.0,0.0,0.0,0.0,1.0,1.0
2025-07-15,7344.767485368164,10039.844471656512,0,1,,,0.0,0.0,0.0,0.0,1.0,1.0
2025-07-16,7344.767485368164,10089.564747535418,0,1,,,0.0,0.0,0.0,0.0,1.0,1.0
2025-07-17,7344.767485368164,10103.124195777606,0,1,,,0.0,0.0,0.0,0.0,1.0,1.0
2025-07-18,7344.767485368164,9836.444988929461,0,1,,,0.0,0.0,0.0,0.0,1.0,1.0
2025-07-21,7344.767485368164,9750.564747535418,0,1,,,0.0,0.0,0.0,0.0,1.0,1.0
2025-07-22,7344.767485368164,9868.084850990008,0,1,,,0.0,0.0,0.0,0.0,1.0,1.0
2025-07-23,7344.767485368164,9831.924885474871,0,1,,,0.0,0.0,0.0,0.0,1.0,1.0
2025-07-24,7344.767485368164,9850.004437171649,0,1,,,0.0,0.0,0.0,0.0,1.0,1.0
2025-07-25,7344.767485368164,10157.364575111102,0,1,,,0.0,0.0,0.0,0.0,1.0,1.0
2025-07-28,7344.767485368164,10048.884678565692,0,1,,,0.0,0.0,0.0,0.0,1.0,1.0
2025-07-29,7344.767485368164,10175.444988929461,0,1,,,0.0,0.0,0.0,0.0,1.0,1.0
2025-07-30,7344.767485368164,10270.364575111102,0,1,,,0.0,0.0,0.0,0.0,1.0,1.0
2025-07-31,7344.767485368164,10396.924885474871,0,1,,,0.0,0.0,0.0,0.0,1.0,1.0
2025-08-01,7344.767485368164,10121.204609595965,0,1,,,0.0,0.0,0.0,0.0,1.0,1.0
2025-08-04,7344.767485368164,10247.764919959734,0,1,,,0.0,0.0,0.0,0.0,1.0,1.0
2025-08-05,7344.767485368164,10076.004437171649,0,1,,,0.0,0.0,0.0,0.0,1.0,1.0
2025-08-06,7344.767485368164,10170.924885474871,0,1,,,0.0,0.0,0.0,0.0,1.0,1.0
2025-08-07,7344.767485368164,10021.764919959734,0,1,,,0.0,0.0,0.0,0.0,1.0,1.0
2025-08-08,7344.767485368164,10017.244816505145,0,1,,,0.0,0.0,0.0,0.0,1.0,1.0
2025-08-11,7344.767485368164,10151.664855111101,0,1,,,0.0,0.0,0.0,107.30028,1.0,1.0
2025-08-12,7344.767485368164,10427.385130990007,0,1,,,0.0,0.0,0.0,0.0,1.0,1.0
2025-08-13,7344.767485368164,10346.024993050554,0,1,,,0.0,0.0,0.0,0.0,1.0,1.0
2025-08-14,7344.767485368164,10373.144751656511,0,1,,,0.0,0.0,0.0,0.0,1.0,1.0
2025-08-15,7344.767485368164,10314.385130990007,0,1,,,0.0,0.0,0.0,0.0,1.0,1.0
2025-08-18,7344.767485368164,10373.144751656511,0,1,,,0.0,0.0,0.0,0.0,1.0,1.0
2025-08-19,7344.767485368164,10205.905234444597,0,1,,,0.0,0.0,0.0,0.0,1.0,1.0
2025-08-20,7344.767485368164,10196.865027535418,0,1,,,0.0,0.0,0.0,0.0,1.0,1.0
2025-08-21,7344.767485368164,10174.264510262468,0,1,,,0.0,0.0,0.0,0.0,1.0,1.0
2025-08-22,7344.767485368164,10486.144751656511,0,1,,,0.0,0.0,0.0,0.0,1.0,1.0
2025-08-25,7344.767485368164,10581.065199959734,0,1,,,0.0,0.0,0.0,0.0,1.0,1.0
2025-08-26,7215.728216072965,10422.865027535418,1,1,BUY,,21.18058507633209,0.0,0.0,0.0,1.0,1.0
2025-08-27,7260.707925698209,10481.624648201921,1,1,,,0.0,0.0,0.0,0.0,1.0,1.0
2025-08-28,7340.287767311978,10585.584441292742,1,1,,,0.0,0.0,0.0,0.0,1.0,1.0
2025-08-29,7319.527952095914,10558.464682686785,1,1,,,0.0,0.0,0.0,0.0,1.0,1.0
2025-09-01,7371.4278201073885,10626.264510262468,1,1,,,0.0,0.0,0.0,0.0,1.0,1.0
2025-09-02,7205.347978493619,10409.304717171648,1,1,,,0.0,0.0,0.0,0.0,1.0,1.0
2025-09-03,7302.228216072965,10535.865027535418,1,1,,,0.0,0.0,0.0,0.0,1.0,1.0
2025-09-04,7399.107793709683,10662.424475777605,1,1,,,0.0,0.0,0.0,0.0,1.0,1.0
2025-09-05,7561.728216072965,10874.865027535418,1,1,,,0.0,0.0,0.0,0.0,1.0,1.0
2025-09-08,7492.527952095914,10784.464682686785,1,1,,,0.0,0.0,0.0,0.0,1.0,1.0
2025-09-09,7499.448110482144,10793.504889595964,1,1,,,0.0,0.0,0.0,0.0,1.0,1.0
2025-09-10,7471.768136879849,10757.344924080828,1,1,,,0.0,0.0,0.0,0.0,1.0,1.0
2025-09-11,7582.488031289029,10901.984786141375,1,1,,,0.0,0.0,0.0,0.0,1.0,1.0
2025-09-12,7534.04824247067,10838.70506202028,1,1,,,0.0,0.0,0.0,0.0,1.0,1.0
2025-09-15,7589.40818967526,10911.024993050554,1,1,,,0.0,0.0,0.0,0.0,1.0,1.0
2025-09-16,7672.448110482144,11019.504889595964,1,1,,,0.0,0.0,0.0,0.0,1.0,1.0
2025-09-17,7710.508321663785,11069.22516547487,1,1,,,0.0,0.0,0.0,0.0,1.0,1.0
2025-09-18,7786.628084084439,11168.664855111101,1,1,,,0.0,0.0,0.0,0.0,1.0,1.0
2025-09-19,7835.067872902799,11231.944579232195,1,1,,,0.0,0.0,0.0,0.0,1.0,1.0
2025-09-22,8108.40818967526,11589.024993050554,1,1,,,0.0,0.0,0.0,0.0,1.0,1.0
2025-09-23,8163.768136879849,11661.344924080828,1,1,,,0.0,0.0,0.0,0.0,1.0,1.0
2025-09-24,8132.628084084439,11620.664855111101,1,1,,,0.0,0.0,0.0,0.0,1.0,1.0
2025-09-25,8028.82834806149,11485.065199959734,1,1,,,0.0,0.0,0.0,0.0,1.0,1.0
2025-09-26,8239.887899300504,11760.784613717058,1,1,,,0.0,0.0,0.0,0.0,1.0,1.0
2025-09-29,8194.90818967526,11702.024993050554,1,1,,,0.0,0.0,0.0,0.0,1.0,1.0
2025-09-30,8132.628084084439,11620.664855111101,1,1,,,0.0,0.0,0.0,0.0,1.0,1.0
2025-10-01,8004.607793709683,11453.424475777605,1,1,,,0.0,0.0,0.0,0.0,1.0,1.0
2025-10-02,7963.0881632775545,11399.184958565691,1,1,,,0.0,0.0,0.0,0.0,1.0,1.0
2025-10-03,7921.567872902799,11344.944579232195,1,1,,,0.0,0.0,0.0,0.0,1.0,1.0
2025-10-06,7786.628084084439,11168.664855111101,1,1,,,0.0,0.0,0.0,0.0,1.0,1.0
2025-10-07,7610.168004891324,10938.144751656511,1,1,,,0.0,0.0,0.0,0.0,1.0,1.0
2025-10-08,7642.924433870542,10892.944579232195,0,1,SELL,,22.128929389953615,0.0,0.0,0.0,1.0,1.0
2025-10-09,7642.924433870542,10807.065199959734,0,1,,,0.0,0.0,0.0,0.0,1.0,1.0
2025-10-10,7642.924433870542,10666.944579232195,0,1,,,0.0,0.0,0.0,0.0,1.0,1.0
2025-10-13,7642.924433870542,10671.464682686785,0,1,,,0.0,0.0,0.0,0.0,1.0,1.0
2025-10-14,7642.924433870542,10617.22516547487,0,1,,,0.0,0.0,0.0,0.0,1.0,1.0
2025-10-15,7642.924433870542,10874.865027535418,0,1,,,0.0,0.0,0.0,0.0,1.0,1.0
2025-10-16,7642.924433870542,10847.74526892946,0,1,,,0.0,0.0,0.0,0.0,1.0,1.0
2025-10-17,7642.924433870542,11005.944579232195,0,1,,,0.0,0.0,0.0,0.0,1.0,1.0
2025-10-20,7642.924433870542,11358.504889595964,0,1,,,0.0,0.0,0.0,0.0,1.0,1.0
2025-10-21,7642.924433870542,11155.104544747332,0,1,,,0.0,0.0,0.0,0.0,1.0,1.0
2025-10-22,7642.924433870542,11394.664855111101,0,1,,,0.0,0.0,0.0,0.0,1.0,1.0
2025-10-23,7642.924433870542,11439.865027535418,0,1,,,0.0,0.0,0.0,0.0,1.0,1.0
2025-10-24,7642.924433870542,11394.664855111101,0,1,,,0.0,0.0,0.0,0.0,1.0,1.0
2025-10-27,7642.924433870542,11616.144751656511,0,1,,,0.0,0.0,0.0,0.0,1.0,1.0
2025-10-28,7642.924433870542,11534.784613717058,0,1,,,0.0,0.0,0.0,0.0,1.0,1.0
2025-10-29,7642.924433870542,11394.664855111101,0,1,,,0.0,0.0,0.0,0.0,1.0,1.0
2025-10-30,7642.924433870542,11692.984786141375,0,1,,,0.0,0.0,0.0,0.0,1.0,1.0
2025-10-31,7642.924433870542,11711.065199959734,0,1,,,0.0,0.0,0.0,0.0,1.0,1.0
2025-11-03,7642.924433870542,11941.584441292742,0,1,,,0.0,0.0,0.0,0.0,1.0,1.0
2025-11-04,7642.924433870542,11869.264510262468,0,1,,,0.0,0.0,0.0,0.0,1.0,1.0
2025-11-05,7642.924433870542,12230.865027535418,0,1,,,0.0,0.0,0.0,0.0,1.0,1.0
2025-11-06,7556.556178111175,12149.504889595964,1,1,BUY,,24.90244438934326,0.0,0.0,0.0,1.0,1.0
2025-11-07,7529.01613141928,12108.824820626238,1,1,,,0.0,0.0,0.0,0.0,1.0,1.0
2025-11-10,7593.276434916595,12203.74526892946,1,1,,,0.0,0.0,0.0,0.0,1.0,1.0
2025-11-11,7704.573979494964,12368.145563535418,1,1,,,0.0,0.0,92.937708,137.28053599999998,1.0,1.0
2025-11-12,7594.413792727386,12205.425287656512,1,1,,,0.0,0.0,0.0,0.0,1.0,1.0
2025-11-13,7618.893769381439,12241.585253171648,1,1,,,0.0,0.0,0.0,0.0,1.0,1.0
2025-11-14,7658.6740962247,12300.345735959734,1,1,,,0.0,0.0,0.0,0.0,1.0,1.0
2025-11-17,7597.473862765228,12209.945391111101,1,1,,,0.0,0.0,0.0,0.0,1.0,1.0
2025-11-18,7609.714142916595,12228.02580492946,1,1,,,0.0,0.0,0.0,0.0,1.0,1.0
2025-11-19,7566.873746035491,12164.745218686785,1,1,,,0.0,0.0,0.0,0.0,1.0,1.0
2025-11-21,7395.513909457122,11911.625460080828,1,1,,,0.0,0.0,0.0,0.0,1.0,1.0
2025-11-24,7462.833699343597,12011.065149717058,1,1,,,0.0,0.0,0.0,0.0,1.0,1.0
2025-11-25,7444.473862765228,11983.945391111101,1,1,,,0.0,0.0,0.0,0.0,1.0,1.0
2025-11-26,7643.373746035491,12277.745218686785,1,1,,,0.0,0.0,0.0,0.0,1.0,1.0
2025-11-27,7600.53393280307,12214.465494565691,1,1,,,0.0,0.0,0.0,0.0,1.0,1.0
2025-11-28,7924.893769381439,12693.585253171648,1,1,,,0.0,0.0,0.0,0.0,1.0,1.0
2025-12-01,7961.614026186859,12747.825632505144,1,1,,,0.0,0.0,0.0,0.0,1.0,1.0
2025-12-02,8325.753605959808,13285.705011777605,1,1,,,0.0,0.0,0.0,0.0,1.0,1.0
2025-12-03,8188.053956149017,13082.305529050554,1,1,,,0.0,0.0,0.0,0.0,1.0,1.0
2025-12-04,8227.833699343597,13141.065149717058,1,1,,,0.0,0.0,0.0,0.0,1.0,1.0
2025-12-05,7716.81367599765,12386.225115232195,1,1,,,0.0,0.0,0.0,0.0,1.0,1.0
2025-12-08,7934.073979494964,12707.145563535418,1,1,,,0.0,0.0,0.0,0.0,1.0,1.0
2025-12-09,7882.053956149017,12630.305529050554,1,1,,,0.0,0.0,0.0,0.0,1.0,1.0
2025-12-10,7882.053956149017,12630.305529050554,1,1,,,0.0,0.0,0.0,0.0,1.0,1.0
2025-12-11,7940.194119570648,12716.185770444597,1,1,,,0.0,0.0,0.0,0.0,1.0,1.0
2025-12-12,7906.53393280307,12666.465494565691,1,1,,,0.0,0.0,0.0,0.0,1.0,1.0
2025-12-15,7903.473862765228,12661.945391111101,1,1,,,0.0,0.0,0.0,0.0,1.0,1.0
2025-12-16,8178.873746035491,13068.745218686785,1,1,,,0.0,0.0,0.0,0.0,1.0,1.0
2025-12-17,8209.473862765228,13113.945391111101,1,1,,,0.0,0.0,0.0,0.0,1.0,1.0
2025-12-18,8077.893769381439,12919.585253171648,1,1,,,0.0,0.0,0.0,0.0,1.0,1.0
2025-12-19,8116.940756803069,12977.26250256569,1,1,,,0.0,0.0,975.4068239999999,1440.797008,1.0,1.0
2025-12-22,8049.620966916595,12877.82281292946,1,1,,,0.0,0.0,0.0,0.0,1.0,1.0
2025-12-23,8276.060896878753,13212.30270947487,1,1,,,0.0,0.0,0.0,0.0,1.0,1.0
2025-12-26,8398.460780149017,13393.102537050554,1,1,,,0.0,0.0,0.0,0.0,1.0,1.0
2025-12-29,8484.14040661386,13519.661985292742,1,1,,,0.0,0.0,0.0,0.0,1.0,1.0
2025-12-30,8481.0809202247,13515.142743959734,1,1,,,0.0,0.0,0.0,0.0,1.0,1.0
2026-01-02,8832.980803494964,14034.942571535417,1,1,,,0.0,0.0,0.0,0.0,1.0,1.0
2026-01-05,8744.240523343597,13903.862157717058,1,1,,,0.0,0.0,0.0,0.0,1.0,1.0
2026-01-06,8918.660429959808,14161.502019777605,1,1,,,0.0,0.0,0.0,0.0,1.0,1.0
2026-01-07,9044.120966916595,14346.82281292946,1,1,,,0.0,0.0,0.0,0.0,1.0,1.0
2026-01-08,9246.0809202247,14645.142743959734,1,1,,,0.0,0.0,0.0,0.0,1.0,1.0
2026-01-09,9322.5809202247,14758.142743959734,1,1,,,0.0,0.0,0.0,0.0,1.0,1.0
2026-01-12,9295.040873532806,14717.462674990007,1,1,,,0.0,0.0,0.0,0.0,1.0,1.0
2026-01-13,9178.760546689544,14545.702192201921,1,1,,,0.0,0.0,0.0,0.0,1.0,1.0
2026-01-14,9243.020850186858,14640.622640505144,1,1,,,0.0,0.0,0.0,0.0,1.0,1.0
2026-01-15,9239.960780149017,14636.102537050554,1,1,,,0.0,0.0,0.0,0.0,1.0,1.0
2026-01-16,9215.480803494964,14599.942571535417,1,1,,,0.0,0.0,0.0,0.0,1.0,1.0
2026-01-19,9041.060896878753,14342.30270947487,1,1,,,0.0,0.0,0.0,0.0,1.0,1.0
2026-01-20,8949.260546689544,14206.702192201921,1,1,,,0.0,0.0,0.0,0.0,1.0,1.0
2026-01-21,9096.14040661386,14423.661985292742,1,1,,,0.0,0.0,0.0,0.0,1.0,1.0
2026-01-22,9132.86066341928,14477.902364626238,1,1,,,0.0,0.0,0.0,0.0,1.0,1.0
2026-01-23,9405.200476651702,14880.182088747331,1,1,,,0.0,0.0,0.0,0.0,1.0,1.0
2026-01-26,9307.280570035491,14735.542226686784,1,1,,,0.0,0.0,0.0,0.0,1.0,1.0
2026-01-27,9423.560896878753,14907.30270947487,1,1,,,0.0,0.0,0.0,0.0,1.0,1.0
2026-01-28,9325.64040661386,14762.661985292742,1,1,,,0.0,0.0,0.0,0.0,1.0,1.0
2026-01-29,9328.700476651702,14767.182088747331,1,1,,,0.0,0.0,0.0,0.0,1.0,1.0
2026-01-30,9588.800593381438,15151.382261171648,1,1,,,0.0,0.0,0.0,0.0,1.0,1.0
2026-02-02,9790.760546689544,15449.702192201921,1,1,,,0.0,0.0,0.0,0.0,1.0,1.0
2026-02-03,9772.400710111175,15422.582433595964,1,1,,,0.0,0.0,0.0,0.0,1.0,1.0
2026-02-04,9567.380686765227,15119.7423991111,1,1,,,0.0,0.0,0.0,0.0,1.0,1.0
2026-02-05,9594.920733457122,15160.422468080827,1,1,,,0.0,0.0,0.0,0.0,1.0,1.0
2026-02-06,9518.420733457122,15047.422468080827,1,1,,,0.0,0.0,0.0,0.0,1.0,1.0
2026-02-09,9631.64040661386,15214.661985292742,1,1,,,0.0,0.0,0.0,0.0,1.0,1.0
2026-02-10,9720.380686765227,15345.7423991111,1,1,,,0.0,0.0,0.0,0.0,1.0,1.0
2026-02-11,9653.060896878753,15246.30270947487,1,1,,,0.0,0.0,0.0,0.0,1.0,1.0
2026-02-12,9135.920733457122,14482.422468080827,1,1,,,0.0,0.0,0.0,0.0,1.0,1.0
2026-02-13,9695.900710111175,15309.582433595964,1,1,,,0.0,0.0,0.0,0.0,1.0,1.0
2026-02-18,9429.680453305755,14916.342054262468,1,1,,,0.0,0.0,0.0,0.0,1.0,1.0
2026-02-19,9399.0809202247,14871.142743959734,1,1,,,0.0,0.0,0.0,0.0,1.0,1.0
2026-02-20,9493.94075680307,15011.26250256569,1,1,,,0.0,0.0,0.0,0.0,1.0,1.0
2026-02-23,9438.86066341928,14929.902364626238,1,1,,,0.0,0.0,0.0,0.0,1.0,1.0
2026-02-24,9643.880686765227,15232.7423991111,1,1,,,0.0,0.0,0.0,0.0,1.0,1.0
2026-02-25,9769.340640073333,15418.062330141374,1,1,,,0.0,0.0,0.0,0.0,1.0,1.0
2026-02-26,9812.180453305755,15481.342054262468,1,1,,,0.0,0.0,0.0,0.0,1.0,1.0
2026-02-27,9750.980803494964,15390.942571535417,1,1,,,0.0,0.0,0.0,0.0,1.0,1.0
2026-03-02,9646.94075680307,15237.26250256569,1,1,,,0.0,0.0,0.0,0.0,1.0,1.0
2026-03-03,9539.840640073333,15079.062330141374,1,1,,,0.0,0.0,0.0,0.0,1.0,1.0
2026-03-04,9628.5809202247,15210.142743959734,1,1,,,0.0,0.0,0.0,0.0,1.0,1.0
2026-03-05,9423.560896878753,14907.30270947487,1,1,,,0.0,0.0,0.0,0.0,1.0,1.0
2026-03-06,9396.020850186858,14866.622640505144,1,1,,,0.0,0.0,0.0,0.0,1.0,1.0
2026-03-09,9426.620966916595,14911.82281292946,1,1,,,0.0,0.0,0.0,0.0,1.0,1.0
2026-03-10,9509.240523343597,15033.862157717058,1,1,,,0.0,0.0,0.0,0.0,1.0,1.0
2026-03-11,9549.020850186858,15092.622640505144,1,1,,,0.0,0.0,0.0,0.0,1.0,1.0
2026-03-12,9246.0809202247,14645.142743959734,1,1,,,0.0,0.0,0.0,0.0,1.0,1.0
2026-03-13,9129.800593381438,14473.382261171648,1,1,,,0.0,0.0,0.0,0.0,1.0,1.0
2026-03-16,9236.900710111175,14631.582433595964,1,1,,,0.0,0.0,0.0,0.0,1.0,1.0
2026-03-17,9291.980803494964,14712.942571535417,1,1,,,0.0,0.0,0.0,0.0,1.0,1.0
2026-03-18,9236.900710111175,14631.582433595964,1,1,,,0.0,0.0,0.0,0.0,1.0,1.0
2026-03-19,9243.020850186858,14640.622640505144,1,1,,,0.0,0.0,0.0,0.0,1.0,1.0
2026-03-20,9096.14040661386,14423.661985292742,1,1,,,0.0,0.0,0.0,0.0,1.0,1.0
2026-03-23,9490.880686765227,15006.7423991111,1,1,,,0.0,0.0,0.0,0.0,1.0,1.0
2026-03-24,9383.780570035491,14848.542226686784,1,1,,,0.0,0.0,0.0,0.0,1.0,1.0
2026-03-25,9695.900710111175,15309.582433595964,1,1,,,0.0,0.0,0.0,0.0,1.0,1.0
2026-03-26,9399.0809202247,14871.142743959734,1,1,,,0.0,0.0,0.0,0.0,1.0,1.0
2026-03-27,9227.72049999765,14618.022123232195,1,1,,,0.0,0.0,0.0,0.0,1.0,1.0
2026-03-30,9276.680453305755,14690.342054262468,1,1,,,0.0,0.0,0.0,0.0,1.0,1.0
2026-03-31,9530.660429959808,15065.502019777605,1,1,,,0.0,0.0,0.0,0.0,1.0,1.0
2026-04-01,9692.840640073333,15305.062330141374,1,1,,,0.0,0.0,0.0,0.0,1.0,1.0
2026-04-02,9643.880686765227,15232.7423991111,1,1,,,0.0,0.0,0.0,0.0,1.0,1.0
2026-04-06,9573.500826840911,15128.78260602028,1,1,,,0.0,0.0,0.0,0.0,1.0,1.0
2026-04-07,9396.020850186858,14866.622640505144,1,1,,,0.0,0.0,0.0,0.0,1.0,1.0
2026-04-08,9607.160429959808,15178.502019777605,1,1,,,0.0,0.0,0.0,0.0,1.0,1.0
2026-04-09,9708.14040661386,15327.661985292742,1,1,,,0.0,0.0,0.0,0.0,1.0,1.0
2026-04-10,9812.180453305755,15481.342054262468,1,1,,,0.0,0.0,0.0,0.0,1.0,1.0
2026-04-13,9806.060896878753,15472.30270947487,1,1,,,0.0,0.0,0.0,0.0,1.0,1.0
2026-04-14,9851.960780149017,15540.102537050554,1,1,,,0.0,0.0,0.0,0.0,1.0,1.0
2026-04-15,9705.0809202247,15323.142743959734,1,1,,,0.0,0.0,0.0,0.0,1.0,1.0
2026-04-16,9524.540873532806,15056.462674990007,1,1,,,0.0,0.0,0.0,0.0,1.0,1.0
2026-04-17,9579.620966916595,15137.82281292946,1,1,,,0.0,0.0,0.0,0.0,1.0,1.0
2026-04-20,9500.060896878753,15020.30270947487,1,1,,,0.0,0.0,0.0,0.0,1.0,1.0
2026-04-22,9347.060896878753,14794.30270947487,1,1,,,0.0,0.0,0.0,0.0,1.0,1.0
2026-04-23,9148.160429959808,14500.502019777605,1,1,,,0.0,0.0,0.0,0.0,1.0,1.0
2026-04-24,9218.540873532806,14604.462674990007,1,1,,,0.0,0.0,0.0,0.0,1.0,1.0
2026-04-27,9126.740523343597,14468.862157717058,1,1,,,0.0,0.0,0.0,0.0,1.0,1.0
2026-04-28,9191.000826840911,14563.78260602028,1,1,,,0.0,0.0,0.0,0.0,1.0,1.0
2026-04-29,9086.960780149017,14410.102537050554,1,1,,,0.0,0.0,0.0,0.0,1.0,1.0
2026-04-30,9066.94109099565,14613.502019777605,0,1,SELL,,26.166910305023194,0.0,0.0,0.0,1.0,1.0
2026-05-04,9066.94109099565,14731.022123232195,0,1,,,0.0,0.0,0.0,0.0,1.0,1.0
2026-05-05,9066.94109099565,15011.26250256569,0,1,,,0.0,0.0,0.0,0.0,1.0,1.0
2026-05-06,9066.94109099565,15128.78260602028,0,1,,,0.0,0.0,0.0,0.0,1.0,1.0
2026-05-07,9066.94109099565,14848.542226686784,0,1,,,0.0,0.0,0.0,0.0,1.0,1.0
2026-05-08,9066.94109099565,14875.661985292742,0,1,,,0.0,0.0,0.0,0.0,1.0,1.0
2026-05-11,9066.94109099565,14559.26250256569,0,1,,,0.0,0.0,0.0,0.0,1.0,1.0
2026-05-12,9066.94109099565,14545.702192201921,0,1,,,0.0,0.0,0.0,0.0,1.0,1.0
2026-05-13,9066.94109099565,14211.222295656511,0,1,,,0.0,0.0,0.0,0.0,1.0,1.0
2026-05-14,9066.94109099565,14515.94553826247,0,1,,,0.0,0.0,0.0,164.603484,1.0,1.0
2026-05-15,9066.94109099565,14357.746227959735,0,1,,,0.0,0.0,0.0,0.0,1.0,1.0
2026-05-18,9066.94109099565,14339.665814141375,0,1,,,0.0,0.0,0.0,0.0,1.0,1.0
2026-05-19,9066.94109099565,13946.426296929461,0,1,,,0.0,0.0,0.0,0.0,1.0,1.0
2026-05-20,9066.94109099565,14222.145710686786,0,1,,,0.0,0.0,0.0,0.0,1.0,1.0
2026-05-21,9066.94109099565,14199.546055535418,0,1,,,0.0,0.0,0.0,0.0,1.0,1.0
2026-05-22,9066.94109099565,14145.305676201922,0,1,,,0.0,0.0,0.0,0.0,1.0,1.0
2026-05-25,9066.94109099565,14357.746227959735,0,1,,,0.0,0.0,0.0,0.0,1.0,1.0
2026-05-26,9066.94109099565,14909.185917595965,0,1,,,0.0,0.0,0.0,0.0,1.0,1.0
2026-05-27,9066.94109099565,14967.94553826247,0,1,,,0.0,0.0,0.0,0.0,1.0,1.0
2026-05-28,9066.94109099565,14927.265469292743,0,1,,,0.0,0.0,0.0,0.0,1.0,1.0
2026-05-29,9066.94109099565,15035.746227959735,0,1,,,0.0,0.0,0.0,0.0,1.0,1.0
2026-06-01,9066.94109099565,15673.066158990008,0,1,,,0.0,0.0,0.0,0.0,1.0,1.0
2026-06-02,9384.274596109462,16436.94553826247,1,1,BUY,,29.21460076332092,0.0,0.0,0.0,1.0,1.0
2026-06-03,9229.774596109462,16210.94553826247,1,1,,,0.0,0.0,0.0,0.0,1.0,1.0
2026-06-05,9538.774596109462,16662.94553826247,1,1,,,0.0,0.0,0.0,0.0,1.0,1.0
2026-06-08,9476.974949731899,16572.54605553542,1,1,,,0.0,0.0,0.0,0.0,1.0,1.0
2026-06-09,9167.974949731899,16120.546055535418,1,1,,,0.0,0.0,0.0,0.0,1.0,1.0
2026-06-10,8948.58464325912,15799.625607232196,1,1,,,0.0,0.0,0.0,0.0,1.0,1.0
2026-06-11,9198.875067606044,16165.746227959735,1,1,,,0.0,0.0,0.0,0.0,1.0,1.0
2026-06-12,9303.91854915707,16319.402065050555,1,1,,,0.0,0.0,883.723623,1292.696044,1.0,1.0
2026-06-15,9217.398336983608,16192.841754686786,1,1,,,0.0,0.0,0.0,0.0,1.0,1.0
2026-06-16,9257.568667031215,16251.602237474872,1,1,,,0.0,0.0,0.0,0.0,1.0,1.0
2026-06-17,9174.13852558224,16129.562030565692,1,1,,,0.0,0.0,0.0,0.0,1.0,1.0
2026-06-18,9186.498219109462,16147.64158226247,1,1,,,0.0,0.0,0.0,0.0,1.0,1.0
2026-06-19,9161.778242684291,16111.481616747333,1,1,,,0.0,0.0,0.0,0.0,1.0,1.0
2026-06-22,9384.258619881557,16436.922168505145,1,1,,,0.0,0.0,0.0,0.0,1.0,1.0
2026-06-23,9316.278242684291,16337.481616747333,1,1,,,0.0,0.0,0.0,0.0,1.0,1.0
2026-06-24,9340.998219109462,16373.64158226247,1,1,,,0.0,0.0,0.0,0.0,1.0,1.0
2026-06-25,9424.428360558437,16495.68178917165,1,1,,,0.0,0.0,0.0,0.0,1.0,1.0
2026-06-26,9501.678360558437,16608.68178917165,1,1,,,0.0,0.0,0.0,0.0,1.0,1.0
2026-06-29,9396.618313408779,16455.001720201923,1,1,,,0.0,0.0,0.0,0.0,1.0,1.0
2026-06-30,9480.048454857753,16577.041927111102,1,1,,,0.0,0.0,0.0,0.0,1.0,1.0
2026-07-01,9557.298454857753,16690.041927111102,1,1,,,0.0,0.0,0.0,0.0,1.0,1.0
2026-07-02,9609.828478432582,16766.881961595966,1,1,,,0.0,0.0,0.0,0.0,1.0,1.0
2026-07-03,9649.998219109462,16825.64158226247,1,1,,,0.0,0.0,0.0,0.0,1.0,1.0
2026-07-06,9337.908737755703,16369.122340929462,1,1,,,0.0,0.0,0.0,0.0,1.0,1.0
2026-07-07,9235.938171959804,16219.961513292743,1,1,,,0.0,0.0,0.0,0.0,1.0,1.0
2026-07-08,9109.248219109462,16034.64158226247,1,1,,,0.0,0.0,0.0,0.0,1.0,1.0
2026-07-09,9254.478596306728,16247.082134020282,1,1,,,0.0,0.0,0.0,0.0,1.0,1.0
2026-07-10,9223.578478432582,16201.881961595966,1,1,,,0.0,0.0,0.0,0.0,1.0,1.0
2026-07-13,8973.288643456386,15835.762202990009,1,1,,,0.0,0.0,0.0,0.0,1.0,1.0
2026-07-14,8939.298454857753,15786.041927111102,1,1,,,0.0,0.0,0.0,0.0,1.0,1.0
2026-07-15,8976.378714180873,15840.282306444598,1,1,,,0.0,0.0,0.0,0.0,1.0,1.0
2026-07-16,9109.248219109462,16034.64158226247,1,1,,,0.0,0.0,0.0,0.0,1.0,1.0
2026-07-17,9047.448572731899,15944.242099535419,1,1,,,0.0,0.0,0.0,0.0,1.0,1.0
