date,strategy_equity,benchmark_equity,strategy_position,benchmark_position,strategy_trade,benchmark_trade,strategy_trade_price,benchmark_trade_price,strategy_dividend_cash,benchmark_dividend_cash,strategy_split_ratio,benchmark_split_ratio
2024-04-15,10000.0,9794.273706686785,0,1,,BUY,0.0,22.061024236679074,0.0,0.0,1.0,1.0
2024-04-16,10000.0,9712.913568747332,0,1,,,0.0,0.0,0.0,0.0,1.0,1.0
2024-04-17,10000.0,9681.273706686785,0,1,,,0.0,0.0,0.0,0.0,1.0,1.0
2024-04-18,10000.0,9685.793810141375,0,1,,,0.0,0.0,0.0,0.0,1.0,1.0
2024-04-19,10000.0,9812.354120505144,0,1,,,0.0,0.0,0.0,0.0,1.0,1.0
2024-04-22,10000.0,9785.233499777605,0,1,,,0.0,0.0,0.0,0.0,1.0,1.0
2024-04-23,10000.0,9672.233499777605,0,1,,,0.0,0.0,0.0,0.0,1.0,1.0
2024-04-24,10000.0,9595.393465292742,0,1,,,0.0,0.0,0.0,0.0,1.0,1.0
2024-04-25,10000.0,9816.874223959734,0,1,,,0.0,0.0,0.0,0.0,1.0,1.0
2024-04-26,10000.0,9848.514086020281,0,1,,,0.0,0.0,0.0,0.0,1.0,1.0
2024-04-29,10000.0,10042.874223959734,0,1,,,0.0,0.0,0.0,0.0,1.0,1.0
2024-04-30,10000.0,9830.433672201922,0,1,,,0.0,0.0,0.0,0.0,1.0,1.0
2024-05-02,10000.0,10083.55429292946,0,1,,,0.0,0.0,0.0,0.0,1.0,1.0
2024-05-03,10000.0,10359.273706686785,0,1,,,0.0,0.0,0.0,0.0,1.0,1.0
2024-05-06,10000.0,10232.714258444597,0,1,,,0.0,0.0,0.0,0.0,1.0,1.0
2024-05-07,10000.0,10259.834017050554,0,1,,,0.0,0.0,0.0,0.0,1.0,1.0
2024-05-08,10000.0,10182.993982565691,0,1,,,0.0,0.0,0.0,0.0,1.0,1.0
2024-05-09,10000.0,10065.473879111101,0,1,,,0.0,0.0,0.0,0.0,1.0,1.0
2024-05-10,10000.0,10088.073534262468,0,1,,,0.0,0.0,0.0,0.0,1.0,1.0
2024-05-13,10000.0,10115.194154990008,0,1,,,0.0,0.0,0.0,0.0,1.0,1.0
2024-05-14,10000.0,10178.473879111101,0,1,,,0.0,0.0,0.0,0.0,1.0,1.0
2024-05-15,10000.0,10259.834017050554,0,1,,,0.0,0.0,0.0,0.0,1.0,1.0
2024-05-16,10000.0,10390.913568747332,0,1,,,0.0,0.0,0.0,0.0,1.0,1.0
2024-05-17,10000.0,10268.874223959734,0,1,,,0.0,0.0,0.0,0.0,1.0,1.0
2024-05-20,10000.0,10273.393465292742,0,1,,,0.0,0.0,0.0,0.0,1.0,1.0
2024-05-21,10000.0,10259.834017050554,0,1,,,0.0,0.0,0.0,0.0,1.0,1.0
2024-05-22,10000.0,10201.073534262468,0,1,,,0.0,0.0,0.0,0.0,1.0,1.0
2024-05-23,10000.0,9966.03418947487,0,1,,,0.0,0.0,0.0,0.0,1.0,1.0
2024-05-24,10000.0,9952.473879111101,0,1,,,0.0,0.0,0.0,0.0,1.0,1.0
2024-05-27,10000.0,10038.354120505144,0,1,,,0.0,0.0,0.0,0.0,1.0,1.0
2024-05-28,10000.0,9938.913568747332,0,1,,,0.0,0.0,0.0,0.0,1.0,1.0
2024-05-29,10000.0,9740.03418947487,0,1,,,0.0,0.0,0.0,0.0,1.0,1.0
2024-05-31,10000.0,9807.834017050554,0,1,,,0.0,0.0,0.0,0.0,1.0,1.0
2024-06-03,10000.0,9916.313913595965,0,1,,,0.0,0.0,0.0,0.0,1.0,1.0
2024-06-04,10000.0,9898.233499777605,0,1,,,0.0,0.0,0.0,0.0,1.0,1.0
2024-06-05,10000.0,9898.233499777605,0,1,,,0.0,0.0,0.0,0.0,1.0,1.0
2024-06-06,10000.0,9984.113741171648,0,1,,,0.0,0.0,0.0,0.0,1.0,1.0
2024-06-07,10000.0,9925.354120505144,0,1,,,0.0,0.0,0.0,0.0,1.0,1.0
2024-06-10,10000.0,9843.993982565691,0,1,,,0.0,0.0,0.0,0.0,1.0,1.0
2024-06-11,10000.0,10092.593637717058,0,1,,,0.0,0.0,0.0,0.0,1.0,1.0
2024-06-12,10000.0,9893.714258444597,0,1,,,0.0,0.0,0.0,0.0,1.0,1.0
2024-06-13,10000.0,9916.313913595965,0,1,,,0.0,0.0,0.0,0.0,1.0,1.0
2024-06-14,10000.0,10146.834017050554,0,1,,,0.0,0.0,0.0,0.0,1.0,1.0
2024-06-17,10000.0,9857.55429292946,0,1,,,0.0,0.0,0.0,0.0,1.0,1.0
2024-06-18,10000.0,9834.953775656511,0,1,,,0.0,0.0,0.0,0.0,1.0,1.0
2024-06-19,10000.0,9934.393465292742,0,1,,,0.0,0.0,0.0,0.0,1.0,1.0
2024-06-20,10000.0,10074.514086020281,0,1,,,0.0,0.0,0.0,0.0,1.0,1.0
2024-06-21,10000.0,10354.753603232195,0,1,,,0.0,0.0,0.0,0.0,1.0,1.0
2024-06-24,10165.612772246948,10603.354120505144,1,1,BUY,,23.011499999999998,0.0,0.0,0.0,1.0,1.0
2024-06-25,10191.592541,10630.473879111101,1,1,,,0.0,0.0,0.0,0.0,1.0,1.0
2024-06-26,10152.622474929443,10589.793810141375,1,1,,,0.0,0.0,0.0,0.0,1.0,1.0
2024-06-27,10135.302904388062,10571.714258444597,1,1,,,0.0,0.0,0.0,0.0,1.0,1.0
2024-06-28,10126.642706176392,10562.674051535418,1,1,,,0.0,0.0,0.0,0.0,1.0,1.0
2024-07-01,10053.032673141113,10485.834017050554,1,1,,,0.0,0.0,0.0,0.0,1.0,1.0
2024-07-02,10066.02214457666,10499.393465292742,1,1,,,0.0,0.0,0.0,0.0,1.0,1.0
2024-07-03,10239.222805282227,10680.194154990008,1,1,,,0.0,0.0,0.0,0.0,1.0,1.0
2024-07-04,10628.922640105835,11086.993982565691,1,1,,,0.0,0.0,0.0,0.0,1.0,1.0
2024-07-05,10728.512441894165,11190.953775656511,1,1,,,0.0,0.0,0.0,0.0,1.0,1.0
2024-07-08,10581.292375823608,11037.273706686785,1,1,,,0.0,0.0,0.0,0.0,1.0,1.0
2024-07-09,10745.832838317505,11209.03418947487,1,1,,,0.0,0.0,0.0,0.0,1.0,1.0
2024-07-10,10295.512441894165,10738.953775656511,1,1,,,0.0,0.0,0.0,0.0,1.0,1.0
2024-07-11,10256.542375823608,10698.273706686785,1,1,,,0.0,0.0,0.0,0.0,1.0,1.0
2024-07-12,10143.962276717773,10580.753603232195,1,1,,,0.0,0.0,0.0,0.0,1.0,1.0
2024-07-15,10104.992210647217,10540.073534262468,1,1,,,0.0,0.0,0.0,0.0,1.0,1.0
2024-07-16,10035.712276717773,10467.753603232195,1,1,,,0.0,0.0,0.0,0.0,1.0,1.0
2024-07-17,10195.922640105835,10634.993982565691,1,1,,,0.0,0.0,0.0,0.0,1.0,1.0
2024-07-18,10187.262441894165,10625.953775656511,1,1,,,0.0,0.0,0.0,0.0,1.0,1.0
2024-07-19,10040.042375823608,10472.273706686785,1,1,,,0.0,0.0,0.0,0.0,1.0,1.0
2024-07-22,9901.482507964722,10327.633844626238,1,1,,,0.0,0.0,0.0,0.0,1.0,1.0
2024-07-23,9420.852243682495,9825.913568747332,1,1,,,0.0,0.0,0.0,0.0,1.0,1.0
2024-07-24,9358.477069310045,9776.194154990008,0,1,SELL,,21.61918416118622,0.0,0.0,0.0,1.0,1.0
2024-07-25,9358.477069310045,9685.793810141375,0,1,,,0.0,0.0,0.0,0.0,1.0,1.0
2024-07-26,9358.477069310045,9703.874223959734,0,1,,,0.0,0.0,0.0,0.0,1.0,1.0
2024-07-29,9358.477069310045,9645.113741171648,0,1,,,0.0,0.0,0.0,0.0,1.0,1.0
2024-07-30,9358.477069310045,9721.953775656511,0,1,,,0.0,0.0,0.0,0.0,1.0,1.0
2024-07-31,9358.477069310045,9834.953775656511,0,1,,,0.0,0.0,0.0,0.0,1.0,1.0
2024-08-01,9358.477069310045,9993.153948080828,0,1,,,0.0,0.0,0.0,0.0,1.0,1.0
2024-08-02,9358.477069310045,10173.953775656511,0,1,,,0.0,0.0,0.0,0.0,1.0,1.0
2024-08-05,9358.477069310045,10115.194154990008,0,1,,,0.0,0.0,0.0,0.0,1.0,1.0
2024-08-06,9358.477069310045,10002.194154990008,0,1,,,0.0,0.0,0.0,0.0,1.0,1.0
2024-08-07,9358.477069310045,10255.313913595965,0,1,,,0.0,0.0,0.0,0.0,1.0,1.0
2024-08-08,9358.477069310045,10404.473879111101,0,1,,,0.0,0.0,0.0,0.0,1.0,1.0
2024-08-09,9358.477069310045,10653.073534262468,0,1,,,0.0,0.0,0.0,0.0,1.0,1.0
2024-08-12,9358.477069310045,10707.313913595965,0,1,,,0.0,0.0,0.0,0.0,1.0,1.0
2024-08-13,9358.477069310045,10802.233499777605,0,1,,,0.0,0.0,0.0,0.0,1.0,1.0
2024-08-14,9358.477069310045,10910.714258444597,0,1,,,0.0,0.0,0.0,0.0,1.0,1.0
2024-08-15,9212.259856030261,10847.433672201922,1,1,BUY,,24.312149236679076,0.0,0.0,0.0,1.0,1.0
2024-08-16,9146.979826733386,10770.593637717058,1,1,,,0.0,0.0,0.0,0.0,1.0,1.0
2024-08-19,9208.419768139636,10842.913568747332,1,1,,,0.0,0.0,0.0,0.0,1.0,1.0
2024-08-20,9285.220061108386,10933.313913595965,1,1,,,0.0,0.0,0.0,0.0,1.0,1.0
2024-08-21,9296.740324780261,10946.874223959734,1,1,,,0.0,0.0,0.0,0.0,1.0,1.0
2024-08-22,9239.139738842761,10879.073534262468,1,1,,,0.0,0.0,0.0,0.0,1.0,1.0
2024-08-23,9438.819914624011,11114.113741171648,1,1,,,0.0,0.0,0.0,0.0,1.0,1.0
2024-08-26,9350.500090405261,11010.153948080828,1,1,,,0.0,0.0,0.0,0.0,1.0,1.0
2024-08-27,9281.379973217761,10928.793810141375,1,1,,,0.0,0.0,0.0,0.0,1.0,1.0
2024-08-28,9239.139738842761,10879.073534262468,1,1,,,0.0,0.0,0.0,0.0,1.0,1.0
2024-08-29,9047.139738842761,10653.073534262468,1,1,,,0.0,0.0,0.0,0.0,1.0,1.0
2024-08-30,8989.539885327136,10585.273706686785,1,1,,,0.0,0.0,0.0,0.0,1.0,1.0
2024-09-02,8805.220061108386,10368.313913595965,1,1,,,0.0,0.0,0.0,0.0,1.0,1.0
2024-09-03,8739.940031811511,10291.473879111101,1,1,,,0.0,0.0,0.0,0.0,1.0,1.0
2024-09-04,8836.851082285877,10395.433672201922,0,1,SELL,,23.04846946620941,0.0,0.0,0.0,1.0,1.0
2024-09-05,8836.851082285877,10408.993982565691,0,1,,,0.0,0.0,0.0,0.0,1.0,1.0
2024-09-06,8836.851082285877,10449.674051535418,0,1,,,0.0,0.0,0.0,0.0,1.0,1.0
2024-09-09,8836.851082285877,10354.753603232195,0,1,,,0.0,0.0,0.0,0.0,1.0,1.0
2024-09-10,8836.851082285877,10494.874223959734,0,1,,,0.0,0.0,0.0,0.0,1.0,1.0
2024-09-11,8836.851082285877,10314.073534262468,0,1,,,0.0,0.0,0.0,0.0,1.0,1.0
2024-09-12,8836.851082285877,10431.593637717058,0,1,,,0.0,0.0,0.0,0.0,1.0,1.0
2024-09-13,8836.851082285877,10472.273706686785,0,1,,,0.0,0.0,0.0,0.0,1.0,1.0
2024-09-16,8836.851082285877,10404.473879111101,0,1,,,0.0,0.0,0.0,0.0,1.0,1.0
2024-09-17,8836.851082285877,10440.633844626238,0,1,,,0.0,0.0,0.0,0.0,1.0,1.0
2024-09-18,8836.851082285877,10336.674051535418,0,1,,,0.0,0.0,0.0,0.0,1.0,1.0
2024-09-19,8836.851082285877,10201.073534262468,0,1,,,0.0,0.0,0.0,0.0,1.0,1.0
2024-09-20,8836.851082285877,10237.233499777605,0,1,,,0.0,0.0,0.0,0.0,1.0,1.0
2024-09-23,8836.851082285877,10015.753603232195,0,1,,,0.0,0.0,0.0,0.0,1.0,1.0
2024-09-24,8836.851082285877,10033.834017050554,0,1,,,0.0,0.0,0.0,0.0,1.0,1.0
2024-09-25,8836.851082285877,10065.473879111101,0,1,,,0.0,0.0,0.0,0.0,1.0,1.0
2024-09-26,8836.851082285877,10083.55429292946,0,1,,,0.0,0.0,0.0,0.0,1.0,1.0
2024-09-27,8836.851082285877,10110.674051535418,0,1,,,0.0,0.0,0.0,0.0,1.0,1.0
2024-09-30,8836.851082285877,10223.674051535418,0,1,,,0.0,0.0,0.0,0.0,1.0,1.0
2024-10-01,8836.851082285877,10024.793810141375,0,1,,,0.0,0.0,0.0,0.0,1.0,1.0
2024-10-02,8836.851082285877,10345.714258444597,0,1,,,0.0,0.0,0.0,0.0,1.0,1.0
2024-10-03,8836.851082285877,10422.55429292946,0,1,,,0.0,0.0,0.0,0.0,1.0,1.0
2024-10-04,8836.851082285877,10503.913568747332,0,1,,,0.0,0.0,0.0,0.0,1.0,1.0
2024-10-07,8836.851082285877,10567.194154990008,0,1,,,0.0,0.0,0.0,0.0,1.0,1.0
2024-10-08,8836.851082285877,10463.233499777605,0,1,,,0.0,0.0,0.0,0.0,1.0,1.0
2024-10-09,8836.851082285877,10237.233499777605,0,1,,,0.0,0.0,0.0,0.0,1.0,1.0
2024-10-10,8836.851082285877,10047.393465292742,0,1,,,0.0,0.0,0.0,0.0,1.0,1.0
2024-10-11,8836.851082285877,9875.633844626238,0,1,,,0.0,0.0,0.0,0.0,1.0,1.0
2024-10-14,8836.851082285877,10083.55429292946,0,1,,,0.0,0.0,0.0,0.0,1.0,1.0
2024-10-15,8836.851082285877,9988.633844626238,0,1,,,0.0,0.0,0.0,0.0,1.0,1.0
2024-10-16,8836.851082285877,10042.874223959734,0,1,,,0.0,0.0,0.0,0.0,1.0,1.0
2024-10-17,8836.851082285877,10115.194154990008,0,1,,,0.0,0.0,0.0,0.0,1.0,1.0
2024-10-18,8836.851082285877,9947.953775656511,0,1,,,0.0,0.0,0.0,0.0,1.0,1.0
2024-10-21,8836.851082285877,9929.874223959734,0,1,,,0.0,0.0,0.0,0.0,1.0,1.0
2024-10-22,8836.851082285877,9839.473879111101,0,1,,,0.0,0.0,0.0,0.0,1.0,1.0
2024-10-23,8836.851082285877,10042.874223959734,0,1,,,0.0,0.0,0.0,0.0,1.0,1.0
2024-10-24,8836.851082285877,10282.433672201922,0,1,,,0.0,0.0,0.0,0.0,1.0,1.0
2024-10-25,8836.851082285877,10092.593637717058,0,1,,,0.0,0.0,0.0,0.0,1.0,1.0
2024-10-28,8836.851082285877,10133.273706686785,0,1,,,0.0,0.0,0.0,0.0,1.0,1.0
2024-10-29,8836.851082285877,10097.113741171648,0,1,,,0.0,0.0,0.0,0.0,1.0,1.0
2024-10-30,8836.851082285877,10314.073534262468,0,1,,,0.0,0.0,0.0,0.0,1.0,1.0
2024-10-31,8836.851082285877,10232.714258444597,0,1,,,0.0,0.0,0.0,0.0,1.0,1.0
2024-11-01,8836.851082285877,10133.273706686785,0,1,,,0.0,0.0,0.0,0.0,1.0,1.0
2024-11-04,8836.851082285877,10205.593637717058,0,1,,,0.0,0.0,0.0,0.0,1.0,1.0
2024-11-05,8836.851082285877,10164.913568747332,0,1,,,0.0,0.0,0.0,0.0,1.0,1.0
2024-11-06,8836.851082285877,10630.473879111101,0,1,,,0.0,0.0,0.0,0.0,1.0,1.0
2024-11-07,8875.621215612446,10558.153948080828,1,1,BUY,,23.19159030532837,0.0,0.0,0.0,1.0,1.0
2024-11-08,8883.221389562641,10567.194154990008,1,1,,,0.0,0.0,0.0,0.0,1.0,1.0
2024-11-11,8716.021186620746,10368.313913595965,1,1,,,0.0,0.0,0.0,0.0,1.0,1.0
2024-11-12,8503.221389562641,10115.194154990008,1,1,,,0.0,0.0,0.0,0.0,1.0,1.0
2024-11-13,8214.421302587543,9771.674051535418,1,1,,,0.0,0.0,0.0,0.0,1.0,1.0
2024-11-14,8419.620925695453,10015.753603232195,1,1,,,0.0,0.0,0.0,0.0,1.0,1.0
2024-11-18,8670.420867712055,10314.073534262468,1,1,,,0.0,0.0,0.0,0.0,1.0,1.0
2024-11-19,8529.821273595844,10146.834017050554,1,1,,,0.0,0.0,0.0,0.0,1.0,1.0
2024-11-21,8260.020896703754,9825.913568747332,1,1,,,0.0,0.0,0.0,0.0,1.0,1.0
2024-11-22,8252.42144754604,9816.874223959734,1,1,,,0.0,0.0,0.0,0.0,1.0,1.0
2024-11-25,7914.220954687153,9414.593637717058,1,1,,,0.0,0.0,0.0,0.0,1.0,1.0
2024-11-26,7928.5739550328035,9500.473879111101,0,1,SELL,,20.88954961872101,0.0,0.0,0.0,1.0,1.0
2024-11-27,7928.5739550328035,9346.793810141375,0,1,,,0.0,0.0,0.0,0.0,1.0,1.0
2024-11-28,7928.5739550328035,9075.593637717058,0,1,,,0.0,0.0,0.0,0.0,1.0,1.0
2024-11-29,7928.5739550328035,9138.874223959734,0,1,,,0.0,0.0,0.0,0.0,1.0,1.0
2024-12-02,7928.5739550328035,8899.313913595965,0,1,,,0.0,0.0,0.0,0.0,1.0,1.0
2024-12-03,7928.5739550328035,8935.473879111101,0,1,,,0.0,0.0,0.0,0.0,1.0,1.0
2024-12-04,7928.5739550328035,8908.354120505144,0,1,,,0.0,0.0,0.0,0.0,1.0,1.0
2024-12-05,7928.5739550328035,9048.473879111101,0,1,,,0.0,0.0,0.0,0.0,1.0,1.0
2024-12-06,7928.5739550328035,9767.153948080828,0,1,,,0.0,0.0,0.0,0.0,1.0,1.0
2024-12-09,7928.5739550328035,9821.393465292742,0,1,,,0.0,0.0,0.0,0.0,1.0,1.0
2024-12-10,7928.5739550328035,9889.194154990008,0,1,,,0.0,0.0,0.0,0.0,1.0,1.0
2024-12-11,7928.5739550328035,9702.821416201921,0,1,,,0.0,0.0,0.0,776.387744,1.0,1.0
2024-12-12,7928.5739550328035,9390.94203692946,0,1,,,0.0,0.0,0.0,0.0,1.0,1.0
2024-12-13,7928.5739550328035,9436.141347232195,0,1,,,0.0,0.0,0.0,0.0,1.0,1.0
2024-12-16,7928.5739550328035,9164.94203692946,0,1,,,0.0,0.0,0.0,0.0,1.0,1.0
2024-12-17,7928.5739550328035,9173.981381717058,0,1,,,0.0,0.0,0.0,0.0,1.0,1.0
2024-12-18,7928.5739550328035,8893.741864505144,0,1,,,0.0,0.0,0.0,0.0,1.0,1.0
2024-12-19,7928.5739550328035,9083.581898990007,0,1,,,0.0,0.0,0.0,0.0,1.0,1.0
2024-12-20,7928.5739550328035,8929.90183002028,0,1,,,0.0,0.0,0.0,0.0,1.0,1.0
2024-12-23,7928.5739550328035,8844.021588626238,0,1,,,0.0,0.0,0.0,0.0,1.0,1.0
2024-12-26,7928.5739550328035,9079.061795535417,0,1,,,0.0,0.0,0.0,0.0,1.0,1.0
2024-12-27,7928.5739550328035,9042.90183002028,0,1,,,0.0,0.0,0.0,0.0,1.0,1.0
2024-12-30,7928.5739550328035,8925.38172656569,0,1,,,0.0,0.0,0.0,0.0,1.0,1.0
2025-01-02,7928.5739550328035,9115.221761050554,0,1,,,0.0,0.0,0.0,0.0,1.0,1.0
2025-01-03,7928.5739550328035,8911.821416201921,0,1,,,0.0,0.0,0.0,0.0,1.0,1.0
2025-01-06,7928.5739550328035,9210.141347232195,0,1,,,0.0,0.0,0.0,0.0,1.0,1.0
2025-01-07,7928.5739550328035,9296.021588626238,0,1,,,0.0,0.0,0.0,0.0,1.0,1.0
2025-01-08,7928.5739550328035,9164.94203692946,0,1,,,0.0,0.0,0.0,0.0,1.0,1.0
2025-01-09,7928.5739550328035,9101.661450686785,0,1,,,0.0,0.0,0.0,0.0,1.0,1.0
2025-01-10,7928.5739550328035,8929.90183002028,0,1,,,0.0,0.0,0.0,0.0,1.0,1.0
2025-01-13,7928.5739550328035,8916.341519656511,0,1,,,0.0,0.0,0.0,0.0,1.0,1.0
2025-01-14,7928.5739550328035,9056.461278262468,0,1,,,0.0,0.0,0.0,0.0,1.0,1.0
2025-01-15,7928.5739550328035,9363.821416201921,0,1,,,0.0,0.0,0.0,0.0,1.0,1.0
2025-01-16,7928.5739550328035,9214.661450686785,0,1,,,0.0,0.0,0.0,0.0,1.0,1.0
2025-01-17,7928.5739550328035,9255.341519656511,0,1,,,0.0,0.0,0.0,0.0,1.0,1.0
2025-01-20,7928.5739550328035,9232.741864505144,0,1,,,0.0,0.0,0.0,0.0,1.0,1.0
2025-01-21,7928.5739550328035,9101.661450686785,0,1,,,0.0,0.0,0.0,0.0,1.0,1.0
2025-01-22,7928.5739550328035,9056.461278262468,0,1,,,0.0,0.0,0.0,0.0,1.0,1.0
2025-01-23,7928.5739550328035,8902.781209292742,0,1,,,0.0,0.0,0.0,0.0,1.0,1.0
2025-01-24,7928.5739550328035,8265.461278262468,0,1,,,0.0,0.0,0.0,0.0,1.0,1.0
2025-01-27,7928.5739550328035,8848.541692080827,0,1,,,0.0,0.0,0.0,0.0,1.0,1.0
2025-01-28,7928.5739550328035,8640.621243777605,0,1,,,0.0,0.0,0.0,0.0,1.0,1.0
2025-01-29,7928.5739550328035,8685.821416201921,0,1,,,0.0,0.0,0.0,0.0,1.0,1.0
2025-01-30,7928.5739550328035,9065.501485171648,0,1,,,0.0,0.0,0.0,0.0,1.0,1.0
2025-01-31,7928.5739550328035,9327.661450686785,0,1,,,0.0,0.0,0.0,0.0,1.0,1.0
2025-02-03,7928.5739550328035,9372.861623111101,0,1,,,0.0,0.0,0.0,0.0,1.0,1.0
2025-02-04,7928.5739550328035,9481.341519656511,0,1,,,0.0,0.0,0.0,0.0,1.0,1.0
2025-02-05,7928.5739550328035,9413.541692080827,0,1,,,0.0,0.0,0.0,0.0,1.0,1.0
2025-02-06,7928.5739550328035,9842.94203692946,0,1,,,0.0,0.0,0.0,0.0,1.0,1.0
2025-02-07,7505.89611586393,9372.861623111101,1,1,BUY,,20.030010457992553,0.0,0.0,0.0,1.0,1.0
2025-02-10,7422.946477497231,9277.94203692946,1,1,,,0.0,0.0,0.0,0.0,1.0,1.0
2025-02-11,7430.845904911172,9286.981381717058,1,1,,,0.0,0.0,0.0,0.0,1.0,1.0
2025-02-12,7150.396266544472,8966.061795535417,1,1,,,0.0,0.0,0.0,0.0,1.0,1.0
2025-02-13,7264.945874775063,9097.141347232195,1,1,,,0.0,0.0,0.0,0.0,1.0,1.0
2025-02-14,7517.746387088906,9386.42193347487,1,1,,,0.0,0.0,0.0,0.0,1.0,1.0
2025-02-17,7517.746387088906,9386.42193347487,1,1,,,0.0,0.0,0.0,0.0,1.0,1.0
2025-02-18,7501.946025455605,9368.341519656511,1,1,,,0.0,0.0,0.0,0.0,1.0,1.0
2025-02-19,7545.396266544472,9418.061795535417,1,1,,,0.0,0.0,0.0,0.0,1.0,1.0
2025-02-20,7474.296146000039,9336.701657595964,1,1,,,0.0,0.0,0.0,0.0,1.0,1.0
2025-02-21,7450.596356952798,9309.581898990007,1,1,,,0.0,0.0,0.0,0.0,1.0,1.0
2025-02-24,7284.696326816689,9119.741864505144,1,1,,,0.0,0.0,0.0,0.0,1.0,1.0
2025-02-25,7450.596356952798,9309.581898990007,1,1,,,0.0,0.0,0.0,0.0,1.0,1.0
2025-02-26,7197.795844638955,9020.301312747331,1,1,,,0.0,0.0,0.0,0.0,1.0,1.0
2025-02-27,7217.546296680581,9042.90183002028,1,1,,,0.0,0.0,0.0,0.0,1.0,1.0
2025-02-28,7233.345904911172,9060.981381717058,1,1,,,0.0,0.0,0.0,0.0,1.0,1.0
2025-03-05,6696.146417225014,8446.261967959734,1,1,,,0.0,0.0,0.0,0.0,1.0,1.0
2025-03-06,6699.115330863931,8649.661450686785,0,1,SELL,,16.991500000000002,0.0,0.0,0.0,1.0,1.0
2025-03-07,6699.115330863931,8636.102002444597,0,1,,,0.0,0.0,0.0,0.0,1.0,1.0
2025-03-10,6699.115330863931,8658.701657595964,0,1,,,0.0,0.0,0.0,0.0,1.0,1.0
2025-03-11,6699.115330863931,8672.261967959734,0,1,,,0.0,0.0,0.0,0.0,1.0,1.0
2025-03-12,6699.115330863931,8753.621243777605,0,1,,,0.0,0.0,0.0,0.0,1.0,1.0
2025-03-13,6699.115330863931,8785.261967959734,0,1,,,0.0,0.0,0.0,0.0,1.0,1.0
2025-03-14,6699.115330863931,8943.461278262468,0,1,,,0.0,0.0,0.0,0.0,1.0,1.0
2025-03-17,6699.115330863931,9115.221761050554,0,1,,,0.0,0.0,0.0,0.0,1.0,1.0
2025-03-18,6699.115330863931,9015.781209292742,0,1,,,0.0,0.0,0.0,0.0,1.0,1.0
2025-03-19,6699.115330863931,9101.661450686785,0,1,,,0.0,0.0,0.0,0.0,1.0,1.0
2025-03-20,6699.115330863931,9056.461278262468,0,1,,,0.0,0.0,0.0,0.0,1.0,1.0
2025-03-21,6699.115330863931,8979.621243777605,0,1,,,0.0,0.0,0.0,0.0,1.0,1.0
2025-03-24,6699.115330863931,8898.261967959734,0,1,,,0.0,0.0,0.0,0.0,1.0,1.0
2025-03-25,6699.115330863931,9015.781209292742,0,1,,,0.0,0.0,0.0,0.0,1.0,1.0
2025-03-26,6699.115330863931,9101.661450686785,0,1,,,0.0,0.0,0.0,0.0,1.0,1.0
2025-03-27,6699.115330863931,9228.221761050554,0,1,,,0.0,0.0,0.0,0.0,1.0,1.0
2025-03-28,6699.115330863931,9056.461278262468,0,1,,,0.0,0.0,0.0,0.0,1.0,1.0
2025-03-31,6699.115330863931,9024.821416201921,0,1,,,0.0,0.0,0.0,0.0,1.0,1.0
2025-04-01,6699.115330863931,9164.94203692946,0,1,,,0.0,0.0,0.0,0.0,1.0,1.0
2025-04-02,6699.115330863931,9101.661450686785,0,1,,,0.0,0.0,0.0,0.0,1.0,1.0
2025-04-03,6699.115330863931,9201.102002444597,0,1,,,0.0,0.0,0.0,0.0,1.0,1.0
2025-04-04,6699.115330863931,8866.621243777605,0,1,,,0.0,0.0,0.0,0.0,1.0,1.0
2025-04-07,6699.115330863931,8907.301312747331,0,1,,,0.0,0.0,0.0,0.0,1.0,1.0
2025-04-08,6699.115330863931,8898.261967959734,0,1,,,0.0,0.0,0.0,0.0,1.0,1.0
2025-04-09,6699.115330863931,9377.38172656569,0,1,,,0.0,0.0,0.0,0.0,1.0,1.0
2025-04-10,6699.115330863931,9142.341519656511,0,1,,,0.0,0.0,0.0,0.0,1.0,1.0
2025-04-11,6699.115330863931,9273.42193347487,0,1,,,0.0,0.0,0.0,0.0,1.0,1.0
2025-04-14,6699.115330863931,9241.781209292742,0,1,,,0.0,0.0,0.0,0.0,1.0,1.0
2025-04-15,6699.115330863931,9259.861623111101,0,1,,,0.0,0.0,0.0,0.0,1.0,1.0
2025-04-16,6699.115330863931,9363.821416201921,0,1,,,0.0,0.0,0.0,0.0,1.0,1.0
2025-04-17,6699.115330863931,9445.181554141374,0,1,,,0.0,0.0,0.0,0.0,1.0,1.0
2025-04-22,6699.115330863931,9544.621243777605,0,1,,,0.0,0.0,0.0,0.0,1.0,1.0
2025-04-23,6607.614887242411,9562.701657595964,1,1,BUY,,19.64981938934326,0.0,0.0,0.0,1.0,1.0
2025-04-24,6832.014835362528,9861.021588626238,1,1,,,0.0,0.0,0.0,0.0,1.0,1.0
2025-04-25,6808.214939122294,9829.38172656569,1,1,,,0.0,0.0,0.0,0.0,1.0,1.0
2025-04-28,6855.814731602763,9892.661450686785,1,1,,,0.0,0.0,0.0,0.0,1.0,1.0
2025-04-29,6934.014575963114,9996.621243777605,1,1,,,0.0,0.0,0.0,0.0,1.0,1.0
2025-04-30,7144.81486130247,10276.861623111101,1,1,,,0.0,0.0,0.0,0.0,1.0,1.0
2025-05-02,7236.615016942118,10398.90183002028,1,1,,,0.0,0.0,0.0,0.0,1.0,1.0
2025-05-05,7270.615146641825,10444.102002444597,1,1,,,0.0,0.0,0.0,0.0,1.0,1.0
2025-05-06,7252.127675362528,10419.524540626238,1,1,,,0.0,0.0,80.11284,106.50295200000001,1.0,1.0
2025-05-07,7007.327908822001,10094.084850990008,1,1,,,0.0,0.0,0.0,0.0,1.0,1.0
2025-05-08,7139.927701302469,10270.364575111102,1,1,,,0.0,0.0,0.0,0.0,1.0,1.0
2025-05-09,7139.927701302469,10270.364575111102,1,1,,,0.0,0.0,0.0,0.0,1.0,1.0
2025-05-12,7058.327779122294,10161.884678565692,1,1,,,0.0,0.0,0.0,0.0,1.0,1.0
2025-05-13,7088.927831002176,10202.564747535418,1,1,,,0.0,0.0,0.0,0.0,1.0,1.0
2025-05-14,7068.528012581766,10175.444988929461,1,1,,,0.0,0.0,0.0,0.0,1.0,1.0
2025-05-15,7333.727597542704,10528.004437171649,1,1,,,0.0,0.0,0.0,0.0,1.0,1.0
2025-05-16,7231.727856942118,10392.404782020281,1,1,,,0.0,0.0,0.0,0.0,1.0,1.0
2025-05-19,7350.727986641825,10550.604954444598,1,1,,,0.0,0.0,0.0,0.0,1.0,1.0
2025-05-20,7578.528012581766,10853.444988929461,1,1,,,0.0,0.0,0.0,0.0,1.0,1.0
2025-05-21,7330.3275197228795,10523.484333717059,1,1,,,0.0,0.0,0.0,0.0,1.0,1.0
2025-05-22,7456.127805062235,10690.724713050555,1,1,,,0.0,0.0,0.0,0.0,1.0,1.0
2025-05-23,7439.127415963114,10668.124195777606,1,1,,,0.0,0.0,0.0,0.0,1.0,1.0
2025-05-26,7241.927441903055,10405.964230262469,1,1,,,0.0,0.0,0.0,0.0,1.0,1.0
2025-05-27,7513.927831002176,10767.564747535418,1,1,,,0.0,0.0,0.0,0.0,1.0,1.0
2025-05-28,7405.127934761942,10622.924885474871,1,1,,,0.0,0.0,0.0,0.0,1.0,1.0
2025-05-29,7394.927701302469,10609.364575111102,1,1,,,0.0,0.0,0.0,0.0,1.0,1.0
2025-05-30,7272.527493782938,10446.644299232195,1,1,,,0.0,0.0,0.0,0.0,1.0,1.0
2025-06-02,7330.3275197228795,10523.484333717059,1,1,,,0.0,0.0,0.0,0.0,1.0,1.0
2025-06-03,7422.127675362528,10645.524540626238,1,1,,,0.0,0.0,0.0,0.0,1.0,1.0
2025-06-04,7469.727467842997,10708.804264747332,1,1,,,0.0,0.0,0.0,0.0,1.0,1.0
2025-06-05,7432.327908822001,10659.084850990008,1,1,,,0.0,0.0,0.0,0.0,1.0,1.0
2025-06-06,7415.3275197228795,10636.484333717059,1,1,,,0.0,0.0,0.0,0.0,1.0,1.0
2025-06-09,7258.927831002176,10428.564747535418,1,1,,,0.0,0.0,0.0,0.0,1.0,1.0
2025-06-10,7367.727727242411,10573.204609595965,1,1,,,0.0,0.0,0.0,0.0,1.0,1.0
2025-06-11,7255.527753182352,10424.044644080828,1,1,,,0.0,0.0,0.0,0.0,1.0,1.0
2025-06-12,7173.927831002176,10315.564747535418,1,1,,,0.0,0.0,0.0,0.0,1.0,1.0
2025-06-13,7133.127545662821,10261.324368201922,1,1,,,0.0,0.0,0.0,0.0,1.0,1.0
2025-06-16,7160.3275197228795,10297.484333717059,1,1,,,0.0,0.0,0.0,0.0,1.0,1.0
2025-06-17,7275.927571602762,10451.164402686785,1,1,,,0.0,0.0,0.0,0.0,1.0,1.0
2025-06-18,7224.927701302469,10383.364575111102,1,1,,,0.0,0.0,0.0,0.0,1.0,1.0
2025-06-20,7133.127545662821,10261.324368201922,1,1,,,0.0,0.0,0.0,0.0,1.0,1.0
2025-06-23,7048.127545662821,10148.324368201922,1,1,,,0.0,0.0,0.0,0.0,1.0,1.0
2025-06-24,7211.3273900231725,10365.284161292742,1,1,,,0.0,0.0,0.0,0.0,1.0,1.0
2025-06-25,7007.327908822001,10094.084850990008,1,1,,,0.0,0.0,0.0,0.0,1.0,1.0
2025-06-26,7088.927831002176,10202.564747535418,1,1,,,0.0,0.0,0.0,0.0,1.0,1.0
2025-06-27,7129.727467842997,10256.804264747332,1,1,,,0.0,0.0,0.0,0.0,1.0,1.0
2025-06-30,7207.927960701883,10360.764919959734,1,1,,,0.0,0.0,0.0,0.0,1.0,1.0
2025-07-01,7153.528012581766,10288.444988929461,1,1,,,0.0,0.0,0.0,0.0,1.0,1.0
2025-07-02,6969.927701302469,10044.364575111102,1,1,,,0.0,0.0,0.0,0.0,1.0,1.0
2025-07-03,7003.594507926883,10238.724713050555,0,1,SELL,,20.38979961872101,0.0,0.0,0.0,1.0,1.0
2025-07-04,7003.594507926883,10283.924885474871,0,1,,,0.0,0.0,0.0,0.0,1.0,1.0
2025-07-07,7003.594507926883,10112.164402686785,0,1,,,0.0,0.0,0.0,0.0,1.0,1.0
2025-07-08,7003.594507926883,10288.444988929461,0,1,,,0.0,0.0,0.0,0.0,1.0,1.0
2025-07-09,7003.594507926883,10170.924885474871,0,1,,,0.0,0.0,0.0,0.0,1.0,1.0
2025-07-10,7003.594507926883,10012.724713050555,0,1,,,0.0,0.0,0.0,0.0,1.0,1.0
2025-07-11,7003.594507926883,9972.044644080828,0,1,,,0.0,0.0,0.0,0.0,1.0,1.0
2025-07-14,7003.594507926883,9990.124195777606,0,1,,,0.0,0.0,0.0,0.0,1.0,1.0
2025-07-15,7003.594507926883,10039.844471656512,0,1,,,0.0,0.0,0.0,0.0,1.0,1.0
2025-07-16,7003.594507926883,10089.564747535418,0,1,,,0.0,0.0,0.0,0.0,1.0,1.0
2025-07-17,7003.594507926883,10103.124195777606,0,1,,,0.0,0.0,0.0,0.0,1.0,1.0
2025-07-18,7003.594507926883,9836.444988929461,0,1,,,0.0,0.0,0.0,0.0,1.0,1.0
2025-07-21,7003.594507926883,9750.564747535418,0,1,,,0.0,0.0,0.0,0.0,1.0,1.0
2025-07-22,7003.594507926883,9868.084850990008,0,1,,,0.0,0.0,0.0,0.0,1.0,1.0
2025-07-23,7003.594507926883,9831.924885474871,0,1,,,0.0,0.0,0.0,0.0,1.0,1.0
2025-07-24,7003.594507926883,9850.004437171649,0,1,,,0.0,0.0,0.0,0.0,1.0,1.0
2025-07-25,7003.594507926883,10157.364575111102,0,1,,,0.0,0.0,0.0,0.0,1.0,1.0
2025-07-28,7003.594507926883,10048.884678565692,0,1,,,0.0,0.0,0.0,0.0,1.0,1.0
2025-07-29,7003.594507926883,10175.444988929461,0,1,,,0.0,0.0,0.0,0.0,1.0,1.0
2025-07-30,7003.594507926883,10270.364575111102,0,1,,,0.0,0.0,0.0,0.0,1.0,1.0
2025-07-31,7003.594507926883,10396.924885474871,0,1,,,0.0,0.0,0.0,0.0,1.0,1.0
2025-08-01,7003.594507926883,10121.204609595965,0,1,,,0.0,0.0,0.0,0.0,1.0,1.0
2025-08-04,7003.594507926883,10247.764919959734,0,1,,,0.0,0.0,0.0,0.0,1.0,1.0
2025-08-05,7003.594507926883,10076.004437171649,0,1,,,0.0,0.0,0.0,0.0,1.0,1.0
2025-08-06,7003.594507926883,10170.924885474871,0,1,,,0.0,0.0,0.0,0.0,1.0,1.0
2025-08-07,7003.594507926883,10021.764919959734,0,1,,,0.0,0.0,0.0,0.0,1.0,1.0
2025-08-08,7003.594507926883,10017.244816505145,0,1,,,0.0,0.0,0.0,0.0,1.0,1.0
2025-08-11,7003.594507926883,10151.664855111101,0,1,,,0.0,0.0,0.0,107.30028,1.0,1.0
2025-08-12,7003.594507926883,10427.385130990007,0,1,,,0.0,0.0,0.0,0.0,1.0,1.0
2025-08-13,7003.594507926883,10346.024993050554,0,1,,,0.0,0.0,0.0,0.0,1.0,1.0
2025-08-14,7003.594507926883,10373.144751656511,0,1,,,0.0,0.0,0.0,0.0,1.0,1.0
2025-08-15,7003.594507926883,10314.385130990007,0,1,,,0.0,0.0,0.0,0.0,1.0,1.0
2025-08-18,7003.594507926883,10373.144751656511,0,1,,,0.0,0.0,0.0,0.0,1.0,1.0
2025-08-19,7003.594507926883,10205.905234444597,0,1,,,0.0,0.0,0.0,0.0,1.0,1.0
2025-08-20,7003.594507926883,10196.865027535418,0,1,,,0.0,0.0,0.0,0.0,1.0,1.0
2025-08-21,7003.594507926883,10174.264510262468,0,1,,,0.0,0.0,0.0,0.0,1.0,1.0
2025-08-22,7003.594507926883,10486.144751656511,0,1,,,0.0,0.0,0.0,0.0,1.0,1.0
2025-08-25,7003.594507926883,10581.065199959734,0,1,,,0.0,0.0,0.0,0.0,1.0,1.0
2025-08-26,7003.594507926883,10422.865027535418,0,1,,,0.0,0.0,0.0,0.0,1.0,1.0
2025-08-27,7003.594507926883,10481.624648201921,0,1,,,0.0,0.0,0.0,0.0,1.0,1.0
2025-08-28,7003.594507926883,10585.584441292742,0,1,,,0.0,0.0,0.0,0.0,1.0,1.0
2025-08-29,7003.594507926883,10558.464682686785,0,1,,,0.0,0.0,0.0,0.0,1.0,1.0
2025-09-01,7003.594507926883,10626.264510262468,0,1,,,0.0,0.0,0.0,0.0,1.0,1.0
2025-09-02,7003.594507926883,10409.304717171648,0,1,,,0.0,0.0,0.0,0.0,1.0,1.0
2025-09-03,7003.594507926883,10535.865027535418,0,1,,,0.0,0.0,0.0,0.0,1.0,1.0
2025-09-04,7003.594507926883,10662.424475777605,0,1,,,0.0,0.0,0.0,0.0,1.0,1.0
2025-09-05,7003.594507926883,10874.865027535418,0,1,,,0.0,0.0,0.0,0.0,1.0,1.0
2025-09-08,6897.1129655909,10784.464682686785,1,1,BUY,,21.94096530532837,0.0,0.0,0.0,1.0,1.0
2025-09-09,6903.4731111597475,10793.504889595964,1,1,,,0.0,0.0,0.0,0.0,1.0,1.0
2025-09-10,6878.033135421222,10757.344924080828,1,1,,,0.0,0.0,0.0,0.0,1.0,1.0
2025-09-11,6979.793038375324,10901.984786141375,1,1,,,0.0,0.0,0.0,0.0,1.0,1.0
2025-09-12,6935.273232467121,10838.70506202028,1,1,,,0.0,0.0,0.0,0.0,1.0,1.0
2025-09-15,6986.153183944171,10911.024993050554,1,1,,,0.0,0.0,0.0,0.0,1.0,1.0
2025-09-16,7062.4731111597475,11019.504889595964,1,1,,,0.0,0.0,0.0,0.0,1.0,1.0
2025-09-17,7097.453305251544,11069.22516547487,1,1,,,0.0,0.0,0.0,0.0,1.0,1.0
2025-09-18,7167.413086898273,11168.664855111101,1,1,,,0.0,0.0,0.0,0.0,1.0,1.0
2025-09-19,7211.932892806476,11231.944579232195,1,1,,,0.0,0.0,0.0,0.0,1.0,1.0
2025-09-22,7463.153183944171,11589.024993050554,1,1,,,0.0,0.0,0.0,0.0,1.0,1.0
2025-09-23,7514.033135421222,11661.344924080828,1,1,,,0.0,0.0,0.0,0.0,1.0,1.0
2025-09-24,7485.413086898273,11620.664855111101,1,1,,,0.0,0.0,0.0,0.0,1.0,1.0
2025-09-25,7390.013329513019,11485.065199959734,1,1,,,0.0,0.0,0.0,0.0,1.0,1.0
2025-09-26,7583.992917067951,11760.784613717058,1,1,,,0.0,0.0,0.0,0.0,1.0,1.0
2025-09-29,7542.653183944171,11702.024993050554,1,1,,,0.0,0.0,0.0,0.0,1.0,1.0
2025-09-30,7485.413086898273,11620.664855111101,1,1,,,0.0,0.0,0.0,0.0,1.0,1.0
2025-10-01,7367.752820022052,11453.424475777605,1,1,,,0.0,0.0,0.0,0.0,1.0,1.0
2025-10-02,7329.593159682697,11399.184958565691,1,1,,,0.0,0.0,0.0,0.0,1.0,1.0
2025-10-03,7291.432892806476,11344.944579232195,1,1,,,0.0,0.0,0.0,0.0,1.0,1.0
2025-10-06,7167.413086898273,11168.664855111101,1,1,,,0.0,0.0,0.0,0.0,1.0,1.0
2025-10-07,7005.233014113849,10938.144751656511,1,1,,,0.0,0.0,0.0,0.0,1.0,1.0
2025-10-08,7035.338633811512,10892.944579232195,0,1,SELL,,22.128929389953615,0.0,0.0,0.0,1.0,1.0
2025-10-09,7035.338633811512,10807.065199959734,0,1,,,0.0,0.0,0.0,0.0,1.0,1.0
2025-10-10,7035.338633811512,10666.944579232195,0,1,,,0.0,0.0,0.0,0.0,1.0,1.0
2025-10-13,7035.338633811512,10671.464682686785,0,1,,,0.0,0.0,0.0,0.0,1.0,1.0
2025-10-14,7035.338633811512,10617.22516547487,0,1,,,0.0,0.0,0.0,0.0,1.0,1.0
2025-10-15,7035.338633811512,10874.865027535418,0,1,,,0.0,0.0,0.0,0.0,1.0,1.0
2025-10-16,7035.338633811512,10847.74526892946,0,1,,,0.0,0.0,0.0,0.0,1.0,1.0
2025-10-17,7035.338633811512,11005.944579232195,0,1,,,0.0,0.0,0.0,0.0,1.0,1.0
2025-10-20,7035.338633811512,11358.504889595964,0,1,,,0.0,0.0,0.0,0.0,1.0,1.0
2025-10-21,7035.338633811512,11155.104544747332,0,1,,,0.0,0.0,0.0,0.0,1.0,1.0
2025-10-22,7035.338633811512,11394.664855111101,0,1,,,0.0,0.0,0.0,0.0,1.0,1.0
2025-10-23,7035.338633811512,11439.865027535418,0,1,,,0.0,0.0,0.0,0.0,1.0,1.0
2025-10-24,7035.338633811512,11394.664855111101,0,1,,,0.0,0.0,0.0,0.0,1.0,1.0
2025-10-27,7035.338633811512,11616.144751656511,0,1,,,0.0,0.0,0.0,0.0,1.0,1.0
2025-10-28,7035.338633811512,11534.784613717058,0,1,,,0.0,0.0,0.0,0.0,1.0,1.0
2025-10-29,7035.338633811512,11394.664855111101,0,1,,,0.0,0.0,0.0,0.0,1.0,1.0
2025-10-30,7035.338633811512,11692.984786141375,0,1,,,0.0,0.0,0.0,0.0,1.0,1.0
2025-10-31,7035.338633811512,11711.065199959734,0,1,,,0.0,0.0,0.0,0.0,1.0,1.0
2025-11-03,7035.338633811512,11941.584441292742,0,1,,,0.0,0.0,0.0,0.0,1.0,1.0
2025-11-04,7035.338633811512,11869.264510262468,0,1,,,0.0,0.0,0.0,0.0,1.0,1.0
2025-11-05,7035.338633811512,12230.865027535418,0,1,,,0.0,0.0,0.0,0.0,1.0,1.0
2025-11-06,6956.0266080978445,12149.504889595964,1,1,BUY,,24.90244438934326,0.0,0.0,0.0,1.0,1.0
2025-11-07,6930.736565220647,12108.824820626238,1,1,,,0.0,0.0,0.0,0.0,1.0,1.0
2025-11-10,6989.746843922429,12203.74526892946,1,1,,,0.0,0.0,0.0,0.0,1.0,1.0
2025-11-11,7091.951451852239,12368.145563535418,1,1,,,0.0,0.0,85.344758,137.28053599999998,1.0,1.0
2025-11-12,6990.79128034345,12205.425287656512,1,1,,,0.0,0.0,0.0,0.0,1.0,1.0
2025-11-13,7013.2712589048515,12241.585253171648,1,1,,,0.0,0.0,0.0,0.0,1.0,1.0
2025-11-14,7049.801559045232,12300.345735959734,1,1,,,0.0,0.0,0.0,0.0,1.0,1.0
2025-11-17,6993.601344659246,12209.945391111101,1,1,,,0.0,0.0,0.0,0.0,1.0,1.0
2025-11-18,7004.84160192243,12228.02580492946,1,1,,,0.0,0.0,0.0,0.0,1.0,1.0
2025-11-19,6965.501237466253,12164.745218686785,1,1,,,0.0,0.0,0.0,0.0,1.0,1.0
2025-11-21,6808.141387536443,11911.625460080828,1,1,,,0.0,0.0,0.0,0.0,1.0,1.0
2025-11-24,6869.961194589056,12011.065149717058,1,1,,,0.0,0.0,0.0,0.0,1.0,1.0
2025-11-25,6853.101344659246,11983.945391111101,1,1,,,0.0,0.0,0.0,0.0,1.0,1.0
2025-11-26,7035.751237466253,12277.745218686785,1,1,,,0.0,0.0,0.0,0.0,1.0,1.0
2025-11-27,6996.411408975042,12214.465494565691,1,1,,,0.0,0.0,0.0,0.0,1.0,1.0
2025-11-28,7294.2712589048515,12693.585253171648,1,1,,,0.0,0.0,0.0,0.0,1.0,1.0
2025-12-01,7327.991494729436,12747.825632505144,1,1,,,0.0,0.0,0.0,0.0,1.0,1.0
2025-12-02,7662.381108834661,13285.705011777605,1,1,,,0.0,0.0,0.0,0.0,1.0,1.0
2025-12-03,7535.931430413641,13082.305529050554,1,1,,,0.0,0.0,0.0,0.0,1.0,1.0
2025-12-04,7572.461194589056,13141.065149717058,1,1,,,0.0,0.0,0.0,0.0,1.0,1.0
2025-12-05,7103.191173150457,12386.225115232195,1,1,,,0.0,0.0,0.0,0.0,1.0,1.0
2025-12-08,7302.701451852239,12707.145563535418,1,1,,,0.0,0.0,0.0,0.0,1.0,1.0
2025-12-09,7254.931430413641,12630.305529050554,1,1,,,0.0,0.0,0.0,0.0,1.0,1.0
2025-12-10,7254.931430413641,12630.305529050554,1,1,,,0.0,0.0,0.0,0.0,1.0,1.0
2025-12-11,7308.321580483831,12716.185770444597,1,1,,,0.0,0.0,0.0,0.0,1.0,1.0
2025-12-12,7277.411408975042,12666.465494565691,1,1,,,0.0,0.0,0.0,0.0,1.0,1.0
2025-12-15,7274.601344659246,12661.945391111101,1,1,,,0.0,0.0,0.0,0.0,1.0,1.0
2025-12-16,7527.501237466253,13068.745218686785,1,1,,,0.0,0.0,0.0,0.0,1.0,1.0
2025-12-17,7555.601344659246,13113.945391111101,1,1,,,0.0,0.0,0.0,0.0,1.0,1.0
2025-12-18,7434.7712589048515,12919.585253171648,1,1,,,0.0,0.0,0.0,0.0,1.0,1.0
2025-12-19,7470.628132975042,12977.26250256569,1,1,,,0.0,0.0,895.716724,1440.797008,1.0,1.0
2025-12-22,7451.667031659246,12877.82281292946,0,1,SELL,,22.988500000000002,0.0,0.0,0.0,1.0,1.0
2025-12-23,7451.667031659246,13212.30270947487,0,1,,,0.0,0.0,0.0,0.0,1.0,1.0
2025-12-26,7451.667031659246,13393.102537050554,0,1,,,0.0,0.0,0.0,0.0,1.0,1.0
2025-12-29,7451.667031659246,13519.661985292742,0,1,,,0.0,0.0,0.0,0.0,1.0,1.0
2025-12-30,7451.667031659246,13515.142743959734,0,1,,,0.0,0.0,0.0,0.0,1.0,1.0
2026-01-02,7451.667031659246,14034.942571535417,0,1,,,0.0,0.0,0.0,0.0,1.0,1.0
2026-01-05,7451.667031659246,13903.862157717058,0,1,,,0.0,0.0,0.0,0.0,1.0,1.0
2026-01-06,7451.667031659246,14161.502019777605,0,1,,,0.0,0.0,0.0,0.0,1.0,1.0
2026-01-07,7451.667031659246,14346.82281292946,0,1,,,0.0,0.0,0.0,0.0,1.0,1.0
2026-01-08,7451.667031659246,14645.142743959734,0,1,,,0.0,0.0,0.0,0.0,1.0,1.0
2026-01-09,7451.667031659246,14758.142743959734,0,1,,,0.0,0.0,0.0,0.0,1.0,1.0
2026-01-12,7451.667031659246,14717.462674990007,0,1,,,0.0,0.0,0.0,0.0,1.0,1.0
2026-01-13,7451.667031659246,14545.702192201921,0,1,,,0.0,0.0,0.0,0.0,1.0,1.0
2026-01-14,7451.667031659246,14640.622640505144,0,1,,,0.0,0.0,0.0,0.0,1.0,1.0
2026-01-15,7451.667031659246,14636.102537050554,0,1,,,0.0,0.0,0.0,0.0,1.0,1.0
2026-01-16,7451.667031659246,14599.942571535417,0,1,,,0.0,0.0,0.0,0.0,1.0,1.0
2026-01-19,7451.667031659246,14342.30270947487,0,1,,,0.0,0.0,0.0,0.0,1.0,1.0
2026-01-20,7451.667031659246,14206.702192201921,0,1,,,0.0,0.0,0.0,0.0,1.0,1.0
2026-01-21,7451.667031659246,14423.661985292742,0,1,,,0.0,0.0,0.0,0.0,1.0,1.0
2026-01-22,7451.667031659246,14477.902364626238,0,1,,,0.0,0.0,0.0,0.0,1.0,1.0
2026-01-23,7451.667031659246,14880.182088747331,0,1,,,0.0,0.0,0.0,0.0,1.0,1.0
2026-01-26,7337.929515899481,14735.542226686784,1,1,BUY,,27.263624999999998,0.0,0.0,0.0,1.0,1.0
2026-01-27,7441.289806426825,14907.30270947487,1,1,,,0.0,0.0,0.0,0.0,1.0,1.0
2026-01-28,7354.249370635809,14762.661985292742,1,1,,,0.0,0.0,0.0,0.0,1.0,1.0
2026-01-29,7356.9694328916685,14767.182088747331,1,1,,,0.0,0.0,0.0,0.0,1.0,1.0
2026-01-30,7588.169536651434,15151.382261171648,1,1,,,0.0,0.0,0.0,0.0,1.0,1.0
2026-02-02,7767.689495147528,15449.702192201921,1,1,,,0.0,0.0,0.0,0.0,1.0,1.0
2026-02-03,7751.3696404112,15422.582433595964,1,1,,,0.0,0.0,0.0,0.0,1.0,1.0
2026-02-04,7569.129619659247,15119.7423991111,1,1,,,0.0,0.0,0.0,0.0,1.0,1.0
2026-02-05,7593.609661163153,15160.422468080827,1,1,,,0.0,0.0,0.0,0.0,1.0,1.0
2026-02-06,7525.609661163153,15047.422468080827,1,1,,,0.0,0.0,0.0,0.0,1.0,1.0
2026-02-09,7626.249370635809,15214.661985292742,1,1,,,0.0,0.0,0.0,0.0,1.0,1.0
2026-02-10,7705.129619659247,15345.7423991111,1,1,,,0.0,0.0,0.0,0.0,1.0,1.0
2026-02-11,7645.289806426825,15246.30270947487,1,1,,,0.0,0.0,0.0,0.0,1.0,1.0
2026-02-12,7185.609661163153,14482.422468080827,1,1,,,0.0,0.0,0.0,0.0,1.0,1.0
2026-02-13,7683.3696404112,15309.582433595964,1,1,,,0.0,0.0,0.0,0.0,1.0,1.0
2026-02-18,7446.729412139715,14916.342054262468,1,1,,,0.0,0.0,0.0,0.0,1.0,1.0
2026-02-19,7419.529827178778,14871.142743959734,1,1,,,0.0,0.0,0.0,0.0,1.0,1.0
2026-02-20,7503.849681915106,15011.26250256569,1,1,,,0.0,0.0,0.0,0.0,1.0,1.0
2026-02-23,7454.8895989072935,14929.902364626238,1,1,,,0.0,0.0,0.0,0.0,1.0,1.0
2026-02-24,7637.129619659247,15232.7423991111,1,1,,,0.0,0.0,0.0,0.0,1.0,1.0
2026-02-25,7748.64957815534,15418.062330141374,1,1,,,0.0,0.0,0.0,0.0,1.0,1.0
2026-02-26,7786.729412139715,15481.342054262468,1,1,,,0.0,0.0,0.0,0.0,1.0,1.0
2026-02-27,7732.329723419012,15390.942571535417,1,1,,,0.0,0.0,0.0,0.0,1.0,1.0
2026-03-02,7639.849681915106,15237.26250256569,1,1,,,0.0,0.0,0.0,0.0,1.0,1.0
2026-03-03,7544.64957815534,15079.062330141374,1,1,,,0.0,0.0,0.0,0.0,1.0,1.0
2026-03-04,7623.529827178778,15210.142743959734,1,1,,,0.0,0.0,0.0,0.0,1.0,1.0
2026-03-05,7441.289806426825,14907.30270947487,1,1,,,0.0,0.0,0.0,0.0,1.0,1.0
2026-03-06,7416.8097649229185,14866.622640505144,1,1,,,0.0,0.0,0.0,0.0,1.0,1.0
2026-03-09,7444.009868682684,14911.82281292946,1,1,,,0.0,0.0,0.0,0.0,1.0,1.0
2026-03-10,7517.449474395575,15033.862157717058,1,1,,,0.0,0.0,0.0,0.0,1.0,1.0
2026-03-11,7552.8097649229185,15092.622640505144,1,1,,,0.0,0.0,0.0,0.0,1.0,1.0
2026-03-12,7283.529827178778,14645.142743959734,1,1,,,0.0,0.0,0.0,0.0,1.0,1.0
2026-03-13,7180.169536651434,14473.382261171648,1,1,,,0.0,0.0,0.0,0.0,1.0,1.0
2026-03-16,7275.3696404112,14631.582433595964,1,1,,,0.0,0.0,0.0,0.0,1.0,1.0
2026-03-17,7324.329723419012,14712.942571535417,1,1,,,0.0,0.0,0.0,0.0,1.0,1.0
2026-03-18,7275.3696404112,14631.582433595964,1,1,,,0.0,0.0,0.0,0.0,1.0,1.0
2026-03-19,7280.8097649229185,14640.622640505144,1,1,,,0.0,0.0,0.0,0.0,1.0,1.0
2026-03-20,7150.249370635809,14423.661985292742,1,1,,,0.0,0.0,0.0,0.0,1.0,1.0
2026-03-23,7501.129619659247,15006.7423991111,1,1,,,0.0,0.0,0.0,0.0,1.0,1.0
2026-03-24,7405.929515899481,14848.542226686784,1,1,,,0.0,0.0,0.0,0.0,1.0,1.0
2026-03-25,7683.3696404112,15309.582433595964,1,1,,,0.0,0.0,0.0,0.0,1.0,1.0
2026-03-26,7419.529827178778,14871.142743959734,1,1,,,0.0,0.0,0.0,0.0,1.0,1.0
2026-03-27,7267.209453643622,14618.022123232195,1,1,,,0.0,0.0,0.0,0.0,1.0,1.0
2026-03-30,7310.729412139715,14690.342054262468,1,1,,,0.0,0.0,0.0,0.0,1.0,1.0
2026-03-31,7536.489391387762,15065.502019777605,1,1,,,0.0,0.0,0.0,0.0,1.0,1.0
2026-04-01,7680.64957815534,15305.062330141374,1,1,,,0.0,0.0,0.0,0.0,1.0,1.0
2026-04-02,7637.129619659247,15232.7423991111,1,1,,,0.0,0.0,0.0,0.0,1.0,1.0
2026-04-06,7574.569744170965,15128.78260602028,1,1,,,0.0,0.0,0.0,0.0,1.0,1.0
2026-04-07,7416.8097649229185,14866.622640505144,1,1,,,0.0,0.0,0.0,0.0,1.0,1.0
2026-04-08,7604.489391387762,15178.502019777605,1,1,,,0.0,0.0,0.0,0.0,1.0,1.0
2026-04-09,7694.249370635809,15327.661985292742,1,1,,,0.0,0.0,0.0,0.0,1.0,1.0
2026-04-10,7786.729412139715,15481.342054262468,1,1,,,0.0,0.0,0.0,0.0,1.0,1.0
2026-04-13,7781.289806426825,15472.30270947487,1,1,,,0.0,0.0,0.0,0.0,1.0,1.0
2026-04-14,7822.089702667059,15540.102537050554,1,1,,,0.0,0.0,0.0,0.0,1.0,1.0
2026-04-15,7691.529827178778,15323.142743959734,1,1,,,0.0,0.0,0.0,0.0,1.0,1.0
2026-04-16,7531.049785674872,15056.462674990007,1,1,,,0.0,0.0,0.0,0.0,1.0,1.0
2026-04-17,7580.009868682684,15137.82281292946,1,1,,,0.0,0.0,0.0,0.0,1.0,1.0
2026-04-20,7509.289806426825,15020.30270947487,1,1,,,0.0,0.0,0.0,0.0,1.0,1.0
2026-04-22,7373.289806426825,14794.30270947487,1,1,,,0.0,0.0,0.0,0.0,1.0,1.0
2026-04-23,7196.489391387762,14500.502019777605,1,1,,,0.0,0.0,0.0,0.0,1.0,1.0
2026-04-24,7259.049785674872,14604.462674990007,1,1,,,0.0,0.0,0.0,0.0,1.0,1.0
2026-04-27,7177.449474395575,14468.862157717058,1,1,,,0.0,0.0,0.0,0.0,1.0,1.0
2026-04-28,7234.569744170965,14563.78260602028,1,1,,,0.0,0.0,0.0,0.0,1.0,1.0
2026-04-29,7142.089702667059,14410.102537050554,1,1,,,0.0,0.0,0.0,0.0,1.0,1.0
2026-04-30,7124.294423419623,14613.502019777605,0,1,SELL,,26.166910305023194,0.0,0.0,0.0,1.0,1.0
2026-05-04,7124.294423419623,14731.022123232195,0,1,,,0.0,0.0,0.0,0.0,1.0,1.0
2026-05-05,7124.294423419623,15011.26250256569,0,1,,,0.0,0.0,0.0,0.0,1.0,1.0
2026-05-06,7124.294423419623,15128.78260602028,0,1,,,0.0,0.0,0.0,0.0,1.0,1.0
2026-05-07,7124.294423419623,14848.542226686784,0,1,,,0.0,0.0,0.0,0.0,1.0,1.0
2026-05-08,7124.294423419623,14875.661985292742,0,1,,,0.0,0.0,0.0,0.0,1.0,1.0
2026-05-11,7124.294423419623,14559.26250256569,0,1,,,0.0,0.0,0.0,0.0,1.0,1.0
2026-05-12,7124.294423419623,14545.702192201921,0,1,,,0.0,0.0,0.0,0.0,1.0,1.0
2026-05-13,7124.294423419623,14211.222295656511,0,1,,,0.0,0.0,0.0,0.0,1.0,1.0
2026-05-14,7124.294423419623,14515.94553826247,0,1,,,0.0,0.0,0.0,164.603484,1.0,1.0
2026-05-15,7124.294423419623,14357.746227959735,0,1,,,0.0,0.0,0.0,0.0,1.0,1.0
2026-05-18,7124.294423419623,14339.665814141375,0,1,,,0.0,0.0,0.0,0.0,1.0,1.0
2026-05-19,7124.294423419623,13946.426296929461,0,1,,,0.0,0.0,0.0,0.0,1.0,1.0
2026-05-20,7124.294423419623,14222.145710686786,0,1,,,0.0,0.0,0.0,0.0,1.0,1.0
2026-05-21,7124.294423419623,14199.546055535418,0,1,,,0.0,0.0,0.0,0.0,1.0,1.0
2026-05-22,7124.294423419623,14145.305676201922,0,1,,,0.0,0.0,0.0,0.0,1.0,1.0
2026-05-25,7124.294423419623,14357.746227959735,0,1,,,0.0,0.0,0.0,0.0,1.0,1.0
2026-05-26,7124.294423419623,14909.185917595965,0,1,,,0.0,0.0,0.0,0.0,1.0,1.0
2026-05-27,7124.294423419623,14967.94553826247,0,1,,,0.0,0.0,0.0,0.0,1.0,1.0
2026-05-28,7124.294423419623,14927.265469292743,0,1,,,0.0,0.0,0.0,0.0,1.0,1.0
2026-05-29,7124.294423419623,15035.746227959735,0,1,,,0.0,0.0,0.0,0.0,1.0,1.0
2026-06-01,7124.294423419623,15673.066158990008,0,1,,,0.0,0.0,0.0,0.0,1.0,1.0
2026-06-02,7373.847956567378,16436.94553826247,1,1,BUY,,29.21460076332092,0.0,0.0,0.0,1.0,1.0
2026-06-03,7252.347956567378,16210.94553826247,1,1,,,0.0,0.0,0.0,0.0,1.0,1.0
2026-06-05,7495.347956567378,16662.94553826247,1,1,,,0.0,0.0,0.0,0.0,1.0,1.0
2026-06-08,7446.7482346588085,16572.54605553542,1,1,,,0.0,0.0,0.0,0.0,1.0,1.0
2026-06-09,7203.7482346588085,16120.546055535418,1,1,,,0.0,0.0,0.0,0.0,1.0,1.0
2026-06-10,7031.217993646235,15799.625607232196,1,1,,,0.0,0.0,0.0,0.0,1.0,1.0
2026-06-11,7228.048327355952,16165.746227959735,1,1,,,0.0,0.0,0.0,0.0,1.0,1.0
2026-06-12,7310.6553371193795,16319.402065050555,1,1,,,0.0,0.0,694.967121,1292.696044,1.0,1.0
2026-06-15,7313.5414926209605,16192.841754686786,0,1,SELL,,27.246370228767397,0.0,0.0,0.0,1.0,1.0
2026-06-16,7313.5414926209605,16251.602237474872,0,1,,,0.0,0.0,0.0,0.0,1.0,1.0
2026-06-17,7313.5414926209605,16129.562030565692,0,1,,,0.0,0.0,0.0,0.0,1.0,1.0
2026-06-18,7313.5414926209605,16147.64158226247,0,1,,,0.0,0.0,0.0,0.0,1.0,1.0
2026-06-19,7313.5414926209605,16111.481616747333,0,1,,,0.0,0.0,0.0,0.0,1.0,1.0
2026-06-22,7313.5414926209605,16436.922168505145,0,1,,,0.0,0.0,0.0,0.0,1.0,1.0
2026-06-23,7313.5414926209605,16337.481616747333,0,1,,,0.0,0.0,0.0,0.0,1.0,1.0
2026-06-24,7313.5414926209605,16373.64158226247,0,1,,,0.0,0.0,0.0,0.0,1.0,1.0
2026-06-25,7313.5414926209605,16495.68178917165,0,1,,,0.0,0.0,0.0,0.0,1.0,1.0
2026-06-26,7313.5414926209605,16608.68178917165,0,1,,,0.0,0.0,0.0,0.0,1.0,1.0
2026-06-29,7313.5414926209605,16455.001720201923,0,1,,,0.0,0.0,0.0,0.0,1.0,1.0
2026-06-30,7313.5414926209605,16577.041927111102,0,1,,,0.0,0.0,0.0,0.0,1.0,1.0
2026-07-01,7313.5414926209605,16690.041927111102,0,1,,,0.0,0.0,0.0,0.0,1.0,1.0
2026-07-02,7313.5414926209605,16766.881961595966,0,1,,,0.0,0.0,0.0,0.0,1.0,1.0
2026-07-03,7313.5414926209605,16825.64158226247,0,1,,,0.0,0.0,0.0,0.0,1.0,1.0
2026-07-06,7313.5414926209605,16369.122340929462,0,1,,,0.0,0.0,0.0,0.0,1.0,1.0
2026-07-07,7313.5414926209605,16219.961513292743,0,1,,,0.0,0.0,0.0,0.0,1.0,1.0
2026-07-08,7313.5414926209605,16034.64158226247,0,1,,,0.0,0.0,0.0,0.0,1.0,1.0
2026-07-09,7313.5414926209605,16247.082134020282,0,1,,,0.0,0.0,0.0,0.0,1.0,1.0
2026-07-10,7313.5414926209605,16201.881961595966,0,1,,,0.0,0.0,0.0,0.0,1.0,1.0
2026-07-13,7313.5414926209605,15835.762202990009,0,1,,,0.0,0.0,0.0,0.0,1.0,1.0
2026-07-14,7313.5414926209605,15786.041927111102,0,1,,,0.0,0.0,0.0,0.0,1.0,1.0
2026-07-15,7313.5414926209605,15840.282306444598,0,1,,,0.0,0.0,0.0,0.0,1.0,1.0
2026-07-16,7313.5414926209605,16034.64158226247,0,1,,,0.0,0.0,0.0,0.0,1.0,1.0
2026-07-17,7313.5414926209605,15944.242099535419,0,1,,,0.0,0.0,0.0,0.0,1.0,1.0
